# Parameters:
# omega_b = 0.022270, omega_m = 0.141300, n_s = 0.968100, h = 67.900000, w = -1.300000, sigma_8 = 0.815400
# z = 0.000000
#
# k[1/Mpc] # P(k):
8.694000e-04 1.494940e+04 
2.077466e-03 3.257676e+04 
3.285532e-03 4.641125e+04 
4.493598e-03 5.708508e+04 
5.701664e-03 6.506012e+04 
6.909730e-03 7.075520e+04 
8.117797e-03 7.465332e+04 
9.325863e-03 7.700553e+04 
1.053393e-02 7.807022e+04 
1.174199e-02 7.808843e+04 
1.295006e-02 7.721117e+04 
1.415813e-02 7.564184e+04 
1.536619e-02 7.355022e+04 
1.657426e-02 7.096666e+04 
1.778233e-02 6.771300e+04 
1.899039e-02 6.414850e+04 
2.019846e-02 6.094869e+04 
2.140652e-02 5.815199e+04 
2.261459e-02 5.552792e+04 
2.382266e-02 5.302431e+04 
2.503072e-02 5.066158e+04 
2.623879e-02 4.845523e+04 
2.744685e-02 4.640957e+04 
2.865492e-02 4.453214e+04 
2.986299e-02 4.281791e+04 
3.100100e-02 4.134933e+04 
3.220400e-02 3.993828e+04 
3.288100e-02 3.920461e+04 
3.424300e-02 3.784770e+04 
3.555100e-02 3.668328e+04 
3.686000e-02 3.562418e+04 
3.795000e-02 3.481497e+04 
3.929100e-02 3.389721e+04 
4.039800e-02 3.318816e+04 
4.164000e-02 3.242624e+04 
4.294400e-02 3.165138e+04 
4.415000e-02 3.096082e+04 
4.542900e-02 3.022608e+04 
4.660900e-02 2.955168e+04 
4.782300e-02 2.884429e+04 
4.892900e-02 2.819433e+04 
5.031200e-02 2.736929e+04 
5.155900e-02 2.661314e+04 
5.238100e-02 2.611076e+04 
5.378200e-02 2.525209e+04 
5.513400e-02 2.441641e+04 
5.627600e-02 2.371563e+04 
5.735300e-02 2.306420e+04 
5.870100e-02 2.226034e+04 
5.988700e-02 2.157368e+04 
6.113500e-02 2.087586e+04 
6.225900e-02 2.027099e+04 
6.340100e-02 1.968115e+04 
6.480200e-02 1.899895e+04 
6.601100e-02 1.844819e+04 
6.725500e-02 1.791903e+04 
6.829100e-02 1.751177e+04 
6.958600e-02 1.703731e+04 
7.071100e-02 1.665778e+04 
7.192300e-02 1.628060e+04 
7.307400e-02 1.595168e+04 
7.412300e-02 1.567485e+04 
7.550400e-02 1.534259e+04 
7.663100e-02 1.509204e+04 
7.791200e-02 1.482880e+04 
7.912700e-02 1.459718e+04 
8.027600e-02 1.438763e+04 
8.138400e-02 1.419259e+04 
8.272200e-02 1.396395e+04 
8.406100e-02 1.373869e+04 
8.534100e-02 1.352237e+04 
8.653800e-02 1.331542e+04 
8.759800e-02 1.313063e+04 
8.900300e-02 1.288153e+04 
9.009000e-02 1.268261e+04 
9.113300e-02 1.248805e+04 
9.239600e-02 1.225095e+04 
9.358000e-02 1.202421e+04 
9.496100e-02 1.175925e+04 
9.608400e-02 1.154516e+04 
9.727500e-02 1.132036e+04 
9.852600e-02 1.108615e+04 
9.973800e-02 1.086589e+04 
1.009000e-01 1.066073e+04 
1.020900e-01 1.045707e+04 
1.034000e-01 1.024240e+04 
1.046000e-01 1.005479e+04 
1.057200e-01 9.889138e+03 
1.069100e-01 9.720174e+03 
1.082500e-01 9.543145e+03 
1.093900e-01 9.399784e+03 
1.105400e-01 9.260617e+03 
1.116900e-01 9.131636e+03 
1.129600e-01 8.994979e+03 
1.142000e-01 8.869772e+03 
1.153300e-01 8.760377e+03 
1.166400e-01 8.639640e+03 
1.177800e-01 8.537795e+03 
1.190000e-01 8.431705e+03 
1.201200e-01 8.337869e+03 
1.213400e-01 8.238288e+03 
1.227100e-01 8.127603e+03 
1.238900e-01 8.034233e+03 
1.250700e-01 7.941586e+03 
1.263200e-01 7.844723e+03 
1.275500e-01 7.749388e+03 
1.287500e-01 7.657681e+03 
1.299900e-01 7.563753e+03 
1.311300e-01 7.477794e+03 
1.323500e-01 7.385515e+03 
1.335900e-01 7.293175e+03 
1.347100e-01 7.210685e+03 
1.359800e-01 7.118546e+03 
1.372100e-01 7.030062e+03 
1.384300e-01 6.943824e+03 
1.395700e-01 6.863994e+03 
1.407700e-01 6.781606e+03 
1.420300e-01 6.696108e+03 
1.432800e-01 6.613125e+03 
1.444500e-01 6.538019e+03 
1.456300e-01 6.463779e+03 
1.468900e-01 6.386197e+03 
1.480500e-01 6.316232e+03 
1.491700e-01 6.250502e+03 
1.503800e-01 6.181547e+03 
1.516400e-01 6.111501e+03 
1.528200e-01 6.048588e+03 
1.540200e-01 5.985821e+03 
1.551900e-01 5.927082e+03 
1.564300e-01 5.866323e+03 
1.576600e-01 5.807459e+03 
1.588700e-01 5.750941e+03 
1.600900e-01 5.695072e+03 
1.612700e-01 5.643088e+03 
1.625400e-01 5.588170e+03 
1.637600e-01 5.536152e+03 
1.649500e-01 5.486178e+03 
1.662200e-01 5.433789e+03 
1.674000e-01 5.385868e+03 
1.685000e-01 5.341934e+03 
1.697500e-01 5.292548e+03 
1.710300e-01 5.242583e+03 
1.722200e-01 5.196947e+03 
1.734400e-01 5.150130e+03 
1.746400e-01 5.104827e+03 
1.758700e-01 5.058908e+03 
1.770900e-01 5.013586e+03 
1.782700e-01 4.970472e+03 
1.794600e-01 4.927282e+03 
1.807000e-01 4.882738e+03 
1.819100e-01 4.839990e+03 
1.830100e-01 4.801801e+03 
1.842200e-01 4.760451e+03 
1.855000e-01 4.717449e+03 
1.867000e-01 4.678238e+03 
1.879200e-01 4.639002e+03 
1.890900e-01 4.601964e+03 
1.902800e-01 4.564901e+03 
1.915200e-01 4.526880e+03 
1.926900e-01 4.491712e+03 
1.939000e-01 4.456399e+03 
1.951700e-01 4.419912e+03 
1.963100e-01 4.387812e+03 
1.975100e-01 4.354942e+03 
1.987800e-01 4.320683e+03 
2.000100e-01 4.288080e+03 
2.012500e-01 4.255866e+03 
2.023400e-01 4.227949e+03 
2.036100e-01 4.195920e+03 
2.048900e-01 4.164275e+03 
2.060400e-01 4.136254e+03 
2.072200e-01 4.107908e+03 
2.084200e-01 4.079600e+03 
2.096900e-01 4.050074e+03 
2.109200e-01 4.021892e+03 
2.121100e-01 3.994858e+03 
2.132700e-01 3.968853e+03 
2.145200e-01 3.941216e+03 
2.157200e-01 3.914986e+03 
2.168800e-01 3.889935e+03 
2.180700e-01 3.864576e+03 
2.193400e-01 3.837862e+03 
2.206000e-01 3.811689e+03 
2.217500e-01 3.788118e+03 
2.229500e-01 3.763840e+03 
2.241400e-01 3.740161e+03 
2.253500e-01 3.716399e+03 
2.264900e-01 3.694297e+03 
2.277100e-01 3.671265e+03 
2.289900e-01 3.647781e+03 
2.301500e-01 3.626775e+03 
2.313600e-01 3.605141e+03 
2.325600e-01 3.584249e+03 
2.337700e-01 3.563450e+03 
2.350000e-01 3.542576e+03 
2.362000e-01 3.522836e+03 
2.374100e-01 3.503613e+03 
2.386500e-01 3.484164e+03 
2.399100e-01 3.464656e+03 
2.410400e-01 3.447638e+03 
2.422500e-01 3.429666e+03 
2.435000e-01 3.411333e+03 
2.447300e-01 3.393680e+03 
2.458700e-01 3.378160e+03 
2.470600e-01 3.362151e+03 
2.483300e-01 3.345277e+03 
2.495600e-01 3.329159e+03 
2.507600e-01 3.313651e+03 
2.519600e-01 3.298330e+03 
2.532200e-01 3.282438e+03 
2.543700e-01 3.268113e+03 
2.555500e-01 3.253588e+03 
2.568000e-01 3.238385e+03 
2.580100e-01 3.223845e+03 
2.592400e-01 3.209129e+03 
2.604100e-01 3.195244e+03 
2.616100e-01 3.181166e+03 
2.628400e-01 3.166904e+03 
2.640600e-01 3.152711e+03 
2.652200e-01 3.139284e+03 
2.664300e-01 3.125435e+03 
2.676500e-01 3.111631e+03 
2.688400e-01 3.097909e+03 
2.700700e-01 3.083630e+03 
2.712400e-01 3.070197e+03 
2.724800e-01 3.056118e+03 
2.736700e-01 3.042607e+03 
2.748800e-01 3.028867e+03 
2.761000e-01 3.015165e+03 
2.773200e-01 3.001612e+03 
2.785400e-01 2.988034e+03 
2.797000e-01 2.974897e+03 
2.808900e-01 2.961560e+03 
2.821400e-01 2.947700e+03 
2.833900e-01 2.933980e+03 
2.845500e-01 2.921113e+03 
2.857800e-01 2.907610e+03 
2.870300e-01 2.894034e+03 
2.882100e-01 2.881352e+03 
2.893900e-01 2.868558e+03 
2.906300e-01 2.855124e+03 
2.918900e-01 2.841616e+03 
2.930500e-01 2.829308e+03 
2.942500e-01 2.816692e+03 
2.954200e-01 2.804488e+03 
2.966500e-01 2.791786e+03 
2.978900e-01 2.779112e+03 
2.990400e-01 2.767473e+03 
3.002700e-01 2.754954e+03 
3.015100e-01 2.742368e+03 
3.026800e-01 2.730609e+03 
3.038500e-01 2.718961e+03 
3.050300e-01 2.707326e+03 
3.062600e-01 2.695348e+03 
3.075000e-01 2.683392e+03 
3.087000e-01 2.671934e+03 
3.099100e-01 2.660492e+03 
3.111200e-01 2.649121e+03 
3.123100e-01 2.637979e+03 
3.135300e-01 2.626664e+03 
3.147300e-01 2.615640e+03 
3.159900e-01 2.604176e+03 
3.171800e-01 2.593399e+03 
3.183700e-01 2.582688e+03 
3.196300e-01 2.571453e+03 
3.208400e-01 2.560766e+03 
3.220300e-01 2.550353e+03 
3.232000e-01 2.540238e+03 
3.244300e-01 2.529714e+03 
3.256700e-01 2.519204e+03 
3.269200e-01 2.508708e+03 
3.280800e-01 2.499056e+03 
3.292500e-01 2.489435e+03 
3.304800e-01 2.479420e+03 
3.317100e-01 2.469496e+03 
3.328900e-01 2.460061e+03 
3.340700e-01 2.450709e+03 
3.353600e-01 2.440606e+03 
3.365300e-01 2.431537e+03 
3.377100e-01 2.422469e+03 
3.389200e-01 2.413252e+03 
3.401600e-01 2.403890e+03 
3.413700e-01 2.394856e+03 
3.425300e-01 2.386284e+03 
3.437700e-01 2.377201e+03 
3.449800e-01 2.368414e+03 
3.461800e-01 2.359776e+03 
3.473600e-01 2.351365e+03 
3.485800e-01 2.342773e+03 
3.498100e-01 2.334186e+03 
3.510200e-01 2.325811e+03 
3.522000e-01 2.317712e+03 
3.533900e-01 2.309613e+03 
3.546400e-01 2.301296e+03 
3.558400e-01 2.293387e+03 
3.570600e-01 2.285414e+03 
3.582700e-01 2.277573e+03 
3.595000e-01 2.269670e+03 
3.607100e-01 2.261928e+03 
3.618900e-01 2.254415e+03 
3.631200e-01 2.246649e+03 
3.643200e-01 2.239134e+03 
3.655500e-01 2.231496e+03 
3.667300e-01 2.224228e+03 
3.679500e-01 2.216789e+03 
3.691900e-01 2.209291e+03 
3.703600e-01 2.202273e+03 
3.715700e-01 2.195074e+03 
3.727700e-01 2.187991e+03 
3.739900e-01 2.180863e+03 
3.752000e-01 2.173878e+03 
3.763900e-01 2.167062e+03 
3.775800e-01 2.160301e+03 
3.788200e-01 2.153311e+03 
3.800300e-01 2.146546e+03 
3.812100e-01 2.140003e+03 
3.824200e-01 2.133348e+03 
3.836100e-01 2.126854e+03 
3.848600e-01 2.120086e+03 
3.860400e-01 2.113748e+03 
3.872400e-01 2.107353e+03 
3.884600e-01 2.100919e+03 
3.896500e-01 2.094699e+03 
3.908700e-01 2.088371e+03 
3.920600e-01 2.082247e+03 
3.933100e-01 2.075864e+03 
3.945300e-01 2.069683e+03 
3.957200e-01 2.063649e+03 
3.969300e-01 2.057544e+03 
3.981700e-01 2.051337e+03 
3.993500e-01 2.045475e+03 
4.094840e-01 1.996946e+03 
4.272360e-01 1.917841e+03 
4.454600e-01 1.843078e+03 
4.630560e-01 1.776426e+03 
4.804610e-01 1.714536e+03 
4.980690e-01 1.656400e+03 
5.159230e-01 1.600823e+03 
5.317440e-01 1.554718e+03 
5.489640e-01 1.507090e+03 
5.671990e-01 1.459546e+03 
5.838690e-01 1.418589e+03 
6.018840e-01 1.376759e+03 
6.202330e-01 1.336065e+03 
6.379250e-01 1.299202e+03 
6.545410e-01 1.266003e+03 
6.714560e-01 1.233768e+03 
6.892080e-01 1.201327e+03 
7.066010e-01 1.171083e+03 
7.240540e-01 1.141913e+03 
7.420450e-01 1.112856e+03 
7.593780e-01 1.086182e+03 
7.764720e-01 1.060629e+03 
7.942840e-01 1.034991e+03 
8.116170e-01 1.011030e+03 
8.288310e-01 9.879332e+02 
8.462240e-01 9.654390e+02 
8.631980e-01 9.440944e+02 
8.810700e-01 9.223676e+02 
8.989410e-01 9.013653e+02 
9.166330e-01 8.812904e+02 
9.345640e-01 8.614434e+02 
9.515980e-01 8.431921e+02 
9.688720e-01 8.252182e+02 
9.865640e-01 8.073175e+02 
1.031870e+00 7.639289e+02 
1.063490e+00 7.355578e+02 
1.097920e+00 7.060799e+02 
1.134370e+00 6.767059e+02 
1.167730e+00 6.513767e+02 
1.203830e+00 6.252489e+02 
1.240470e+00 6.002934e+02 
1.275790e+00 5.774343e+02 
1.309140e+00 5.569308e+02 
1.342970e+00 5.371596e+02 
1.378420e+00 5.174648e+02 
1.413200e+00 4.991420e+02 
1.448110e+00 4.816290e+02 
1.484090e+00 4.644582e+02 
1.518820e+00 4.486740e+02 
1.552880e+00 4.339738e+02 
1.588630e+00 4.192151e+02 
1.623230e+00 4.055736e+02 
1.657720e+00 3.926150e+02 
1.692450e+00 3.801587e+02 
1.726400e+00 3.685011e+02 
1.762200e+00 3.568031e+02 
1.797880e+00 3.455969e+02 
1.833270e+00 3.350122e+02 
1.869070e+00 3.247540e+02 
1.903200e+00 3.153731e+02 
1.937740e+00 3.062513e+02 
1.973190e+00 2.972831e+02 
2.007440e+00 2.890007e+02 
2.042160e+00 2.809245e+02 
2.077900e+00 2.729305e+02 
2.112390e+00 2.655086e+02 
2.146220e+00 2.585431e+02 
2.181600e+00 2.514796e+02 
2.216930e+00 2.447165e+02 
2.250760e+00 2.385090e+02 
2.286500e+00 2.321873e+02 
2.321770e+00 2.261516e+02 
2.355950e+00 2.205372e+02 
2.391280e+00 2.149310e+02 
2.426240e+00 2.095744e+02 
2.460670e+00 2.044903e+02 
2.495640e+00 1.995175e+02 
2.531080e+00 1.946111e+02 
2.566220e+00 1.899313e+02 
2.600830e+00 1.854921e+02 
2.635080e+00 1.812563e+02 
2.670340e+00 1.769996e+02 
2.705970e+00 1.728552e+02 
2.740040e+00 1.690267e+02 
2.774520e+00 1.652657e+02 
2.809730e+00 1.615602e+02 
2.844390e+00 1.580310e+02 
2.879960e+00 1.545155e+02 
2.914860e+00 1.511690e+02 
2.949410e+00 1.479545e+02 
2.984440e+00 1.447871e+02 
3.019760e+00 1.416991e+02 
3.054730e+00 1.387384e+02 
3.089030e+00 1.359133e+02 
3.124060e+00 1.331175e+02 
3.159560e+00 1.303747e+02 
3.194710e+00 1.277322e+02 
3.229010e+00 1.252249e+02 
3.263320e+00 1.227812e+02 
3.297930e+00 1.203878e+02 
3.332830e+00 1.180477e+02 
3.368040e+00 1.157491e+02 
3.403300e+00 1.135085e+02 
3.438450e+00 1.113428e+02 
3.473060e+00 1.092692e+02 
3.508440e+00 1.072011e+02 
3.543110e+00 1.052274e+02 
3.577470e+00 1.033187e+02 
3.613040e+00 1.013959e+02 
3.648120e+00 9.955423e+01 
3.682910e+00 9.777300e+01 
3.718050e+00 9.601699e+01 
3.753320e+00 9.430166e+01 
3.787980e+00 9.266185e+01 
3.822290e+00 9.107689e+01 
3.857020e+00 8.950949e+01 
3.891920e+00 8.797457e+01 
3.926650e+00 8.648758e+01 
3.961970e+00 8.501057e+01 
3.997360e+00 8.356405e+01 
4.031670e+00 8.219554e+01 
4.066330e+00 8.084973e+01 
4.101420e+00 7.951869e+01 
4.136200e+00 7.823475e+01 
4.170810e+00 7.698578e+01 
4.206250e+00 7.573385e+01 
4.241580e+00 7.451364e+01 
4.276300e+00 7.333961e+01 
4.310970e+00 7.219203e+01 
4.346120e+00 7.105584e+01 
4.380600e+00 6.996853e+01 
4.414730e+00 6.891509e+01 
4.450350e+00 6.784393e+01 
4.485320e+00 6.681475e+01 
4.519810e+00 6.581972e+01 
4.555430e+00 6.481307e+01 
4.590870e+00 6.383389e+01 
4.625480e+00 6.290004e+01 
4.659910e+00 6.198976e+01 
4.695230e+00 6.107868e+01 
4.729960e+00 6.020144e+01 
4.764450e+00 5.934693e+01 
4.799530e+00 5.849403e+01 
4.834910e+00 5.765093e+01 
4.869700e+00 5.684128e+01 
4.904370e+00 5.605051e+01 
4.939450e+00 5.526547e+01 
4.973940e+00 5.450752e+01 
5.008430e+00 5.376384e+01 
5.043810e+00 5.301758e+01 
5.078840e+00 5.229397e+01 
5.113500e+00 5.159134e+01 
5.148890e+00 5.089035e+01 
5.184210e+00 5.020392e+01 
5.219060e+00 4.953881e+01 
5.253660e+00 4.888967e+01 
5.288570e+00 4.824651e+01 
5.323420e+00 4.761739e+01 
5.358440e+00 4.699805e+01 
5.393590e+00 4.638751e+01 
5.428310e+00 4.579691e+01 
5.462800e+00 4.522138e+01 
5.497640e+00 4.465006e+01 
5.532670e+00 4.408486e+01 
5.567280e+00 4.353580e+01 
5.602000e+00 4.299437e+01 
5.637270e+00 4.245580e+01 
5.672410e+00 4.192885e+01 
5.707020e+00 4.141857e+01 
5.742040e+00 4.091291e+01 
5.777430e+00 4.041088e+01 
5.812210e+00 3.992571e+01 
5.846820e+00 3.945013e+01 
5.881610e+00 3.897970e+01 
5.916510e+00 3.851544e+01 
5.951600e+00 3.805588e+01 
5.986560e+00 3.760526e+01 
6.021830e+00 3.715799e+01 
6.056490e+00 3.672655e+01 
6.091160e+00 3.630270e+01 
6.125830e+00 3.588548e+01 
6.161090e+00 3.546843e+01 
6.195760e+00 3.506605e+01 
6.230420e+00 3.466997e+01 
6.265690e+00 3.427314e+01 
6.300950e+00 3.388224e+01 
6.335620e+00 3.350378e+01 
6.370880e+00 3.312473e+01 
6.405550e+00 3.275881e+01 
6.440220e+00 3.239883e+01 
6.475480e+00 3.203821e+01 
6.510150e+00 3.168881e+01 
6.544810e+00 3.134442e+01 
6.580080e+00 3.099916e+01 
6.614750e+00 3.066476e+01 
6.649410e+00 3.033669e+01 
6.684080e+00 3.001354e+01 
6.719340e+00 2.968964e+01 
6.754010e+00 2.937564e+01 
6.788680e+00 2.906585e+01 
6.823940e+00 2.875529e+01 
6.859800e+00 2.844401e+01 
6.894470e+00 2.814719e+01 
6.929140e+00 2.785445e+01 
6.963800e+00 2.756587e+01 
6.999070e+00 2.727641e+01 
7.033730e+00 2.699722e+01 
7.068400e+00 2.672179e+01 
7.103660e+00 2.644553e+01 
7.138330e+00 2.617756e+01 
7.173600e+00 2.590856e+01 
7.208260e+00 2.564781e+01 
7.243530e+00 2.538607e+01 
7.277600e+00 2.513728e+01 
7.312860e+00 2.488384e+01 
7.348120e+00 2.463381e+01 
7.382790e+00 2.439124e+01 
7.417460e+00 2.415174e+01 
7.452720e+00 2.391132e+01 
7.487390e+00 2.367803e+01 
7.522650e+00 2.344389e+01 
7.557320e+00 2.321658e+01 
7.591990e+00 2.299217e+01 
7.627250e+00 2.276689e+01 
7.662510e+00 2.254454e+01 
7.697180e+00 2.232865e+01 
7.731850e+00 2.211547e+01 
7.766510e+00 2.190505e+01 
7.801180e+00 2.169721e+01 
7.836440e+00 2.148922e+01 
7.871110e+00 2.128772e+01 
7.906380e+00 2.108530e+01 
7.941040e+00 2.088887e+01 
7.976310e+00 2.069090e+01 
8.011570e+00 2.049478e+01 
8.046240e+00 2.030434e+01 
8.080900e+00 2.011628e+01 
8.115570e+00 1.993069e+01 
8.150830e+00 1.974508e+01 
8.185500e+00 1.956481e+01 
8.220770e+00 1.938363e+01 
8.255430e+00 1.920775e+01 
8.290100e+00 1.903477e+01 
8.324770e+00 1.886396e+01 
8.359430e+00 1.869521e+01 
8.394700e+00 1.852553e+01 
8.429960e+00 1.835745e+01 
8.464630e+00 1.819367e+01 
8.499890e+00 1.802907e+01 
8.534560e+00 1.786913e+01 
8.569200e+00 1.771117e+01 
