# Parameters:
# omega_b = 0.022270, omega_m = 0.141300, n_s = 0.968100, h = 67.900000, w = -0.850000, sigma_8 = 0.815400
# z = 0.000000
#
# k[1/Mpc] # P(k):
8.694000e-04 1.577731e+04 
2.077466e-03 3.333886e+04 
3.285532e-03 4.717298e+04 
4.493598e-03 5.786282e+04 
5.701664e-03 6.585028e+04 
6.909730e-03 7.155591e+04 
8.117797e-03 7.546403e+04 
9.325863e-03 7.782347e+04 
1.053393e-02 7.888801e+04 
1.174199e-02 7.889530e+04 
1.295006e-02 7.799832e+04 
1.415813e-02 7.640705e+04 
1.536619e-02 7.429933e+04 
1.657426e-02 7.187109e+04 
1.778233e-02 6.947461e+04 
1.899039e-02 6.712317e+04 
2.019846e-02 6.439891e+04 
2.140652e-02 6.139164e+04 
2.261459e-02 5.837886e+04 
2.382266e-02 5.550563e+04 
2.503072e-02 5.282014e+04 
2.623879e-02 5.033904e+04 
2.744685e-02 4.806738e+04 
2.865492e-02 4.600863e+04 
2.986299e-02 4.415393e+04 
3.100100e-02 4.259064e+04 
3.220400e-02 4.111486e+04 
3.288100e-02 4.036127e+04 
3.424300e-02 3.899315e+04 
3.555100e-02 3.784806e+04 
3.686000e-02 3.683255e+04 
3.795000e-02 3.607300e+04 
3.929100e-02 3.523030e+04 
4.039800e-02 3.458629e+04 
4.164000e-02 3.389531e+04 
4.294400e-02 3.318478e+04 
4.415000e-02 3.254158e+04 
4.542900e-02 3.183468e+04 
4.660900e-02 3.116818e+04 
4.782300e-02 3.044018e+04 
4.892900e-02 2.975355e+04 
5.031200e-02 2.885635e+04 
5.155900e-02 2.801160e+04 
5.238100e-02 2.744163e+04 
5.378200e-02 2.645573e+04 
5.513400e-02 2.548697e+04 
5.627600e-02 2.467176e+04 
5.735300e-02 2.391493e+04 
5.870100e-02 2.298639e+04 
5.988700e-02 2.220038e+04 
6.113500e-02 2.141054e+04 
6.225900e-02 2.073568e+04 
6.340100e-02 2.008801e+04 
6.480200e-02 1.935065e+04 
6.601100e-02 1.876818e+04 
6.725500e-02 1.821929e+04 
6.829100e-02 1.780555e+04 
6.958600e-02 1.733051e+04 
7.071100e-02 1.695736e+04 
7.192300e-02 1.659172e+04 
7.307400e-02 1.627679e+04 
7.412300e-02 1.601417e+04 
7.550400e-02 1.570154e+04 
7.663100e-02 1.546654e+04 
7.791200e-02 1.521950e+04 
7.912700e-02 1.500089e+04 
8.027600e-02 1.480139e+04 
8.138400e-02 1.461410e+04 
8.272200e-02 1.439216e+04 
8.406100e-02 1.417103e+04 
8.534100e-02 1.395601e+04 
8.653800e-02 1.374832e+04 
8.759800e-02 1.356187e+04 
8.900300e-02 1.330914e+04 
9.009000e-02 1.310622e+04 
9.113300e-02 1.290681e+04 
9.239600e-02 1.266293e+04 
9.358000e-02 1.242861e+04 
9.496100e-02 1.215279e+04 
9.608400e-02 1.192875e+04 
9.727500e-02 1.169256e+04 
9.852600e-02 1.144397e+04 
9.973800e-02 1.120917e+04 
1.009000e-01 1.098963e+04 
1.020900e-01 1.077012e+04 
1.034000e-01 1.053833e+04 
1.046000e-01 1.033535e+04 
1.057200e-01 1.015631e+04 
1.069100e-01 9.973982e+03 
1.082500e-01 9.784040e+03 
1.093900e-01 9.631526e+03 
1.105400e-01 9.484247e+03 
1.116900e-01 9.350018e+03 
1.129600e-01 9.208693e+03 
1.142000e-01 9.081666e+03 
1.153300e-01 8.971649e+03 
1.166400e-01 8.851754e+03 
1.177800e-01 8.751758e+03 
1.190000e-01 8.648131e+03 
1.201200e-01 8.557065e+03 
1.213400e-01 8.460535e+03 
1.227100e-01 8.353046e+03 
1.238900e-01 8.262190e+03 
1.250700e-01 8.171371e+03 
1.263200e-01 8.076004e+03 
1.275500e-01 7.981218e+03 
1.287500e-01 7.889547e+03 
1.299900e-01 7.794883e+03 
1.311300e-01 7.707766e+03 
1.323500e-01 7.613530e+03 
1.335900e-01 7.518891e+03 
1.347100e-01 7.433899e+03 
1.359800e-01 7.338777e+03 
1.372100e-01 7.247054e+03 
1.384300e-01 7.157580e+03 
1.395700e-01 7.074568e+03 
1.407700e-01 6.988892e+03 
1.420300e-01 6.899935e+03 
1.432800e-01 6.813597e+03 
1.444500e-01 6.735496e+03 
1.456300e-01 6.658298e+03 
1.468900e-01 6.577725e+03 
1.480500e-01 6.505094e+03 
1.491700e-01 6.436912e+03 
1.503800e-01 6.365453e+03 
1.516400e-01 6.292888e+03 
1.528200e-01 6.227822e+03 
1.540200e-01 6.162908e+03 
1.551900e-01 6.102306e+03 
1.564300e-01 6.039657e+03 
1.576600e-01 5.979059e+03 
1.588700e-01 5.920994e+03 
1.600900e-01 5.863608e+03 
1.612700e-01 5.810451e+03 
1.625400e-01 5.754294e+03 
1.637600e-01 5.701279e+03 
1.649500e-01 5.650451e+03 
1.662200e-01 5.597213e+03 
1.674000e-01 5.548775e+03 
1.685000e-01 5.504369e+03 
1.697500e-01 5.454587e+03 
1.710300e-01 5.404356e+03 
1.722200e-01 5.358477e+03 
1.734400e-01 5.311611e+03 
1.746400e-01 5.266269e+03 
1.758700e-01 5.220337e+03 
1.770900e-01 5.175056e+03 
1.782700e-01 5.131981e+03 
1.794600e-01 5.088809e+03 
1.807000e-01 5.044270e+03 
1.819100e-01 5.001524e+03 
1.830100e-01 4.963236e+03 
1.842200e-01 4.921760e+03 
1.855000e-01 4.878615e+03 
1.867000e-01 4.839051e+03 
1.879200e-01 4.799461e+03 
1.890900e-01 4.762038e+03 
1.902800e-01 4.724331e+03 
1.915200e-01 4.685650e+03 
1.926900e-01 4.649804e+03 
1.939000e-01 4.613592e+03 
1.951700e-01 4.576174e+03 
1.963100e-01 4.543185e+03 
1.975100e-01 4.509212e+03 
1.987800e-01 4.473804e+03 
2.000100e-01 4.440048e+03 
2.012500e-01 4.406555e+03 
2.023400e-01 4.377529e+03 
2.036100e-01 4.344204e+03 
2.048900e-01 4.311190e+03 
2.060400e-01 4.281957e+03 
2.072200e-01 4.252385e+03 
2.084200e-01 4.222872e+03 
2.096900e-01 4.192086e+03 
2.109200e-01 4.162703e+03 
2.121100e-01 4.134567e+03 
2.132700e-01 4.107504e+03 
2.145200e-01 4.078743e+03 
2.157200e-01 4.051509e+03 
2.168800e-01 4.025530e+03 
2.180700e-01 3.999230e+03 
2.193400e-01 3.971533e+03 
2.206000e-01 3.944410e+03 
2.217500e-01 3.919984e+03 
2.229500e-01 3.894824e+03 
2.241400e-01 3.870208e+03 
2.253500e-01 3.845505e+03 
2.264900e-01 3.822526e+03 
2.277100e-01 3.798443e+03 
2.289900e-01 3.773731e+03 
2.301500e-01 3.751626e+03 
2.313600e-01 3.728857e+03 
2.325600e-01 3.706444e+03 
2.337700e-01 3.684131e+03 
2.350000e-01 3.661736e+03 
2.362000e-01 3.640282e+03 
2.374100e-01 3.619057e+03 
2.386500e-01 3.597580e+03 
2.399100e-01 3.576036e+03 
2.410400e-01 3.556731e+03 
2.422500e-01 3.536276e+03 
2.435000e-01 3.515407e+03 
2.447300e-01 3.495203e+03 
2.458700e-01 3.477007e+03 
2.470600e-01 3.458232e+03 
2.483300e-01 3.438438e+03 
2.495600e-01 3.419414e+03 
2.507600e-01 3.400950e+03 
2.519600e-01 3.382702e+03 
2.532200e-01 3.363770e+03 
2.543700e-01 3.346714e+03 
2.555500e-01 3.329425e+03 
2.568000e-01 3.311324e+03 
2.580100e-01 3.294006e+03 
2.592400e-01 3.276685e+03 
2.604100e-01 3.260430e+03 
2.616100e-01 3.243944e+03 
2.628400e-01 3.227238e+03 
2.640600e-01 3.210964e+03 
2.652200e-01 3.195702e+03 
2.664300e-01 3.179957e+03 
2.676500e-01 3.164260e+03 
2.688400e-01 3.149000e+03 
2.700700e-01 3.133327e+03 
2.712400e-01 3.118581e+03 
2.724800e-01 3.103124e+03 
2.736700e-01 3.088535e+03 
2.748800e-01 3.073945e+03 
2.761000e-01 3.059394e+03 
2.773200e-01 3.045002e+03 
2.785400e-01 3.030710e+03 
2.797000e-01 3.017148e+03 
2.808900e-01 3.003378e+03 
2.821400e-01 2.989069e+03 
2.833900e-01 2.974915e+03 
2.845500e-01 2.961901e+03 
2.857800e-01 2.948244e+03 
2.870300e-01 2.934514e+03 
2.882100e-01 2.921687e+03 
2.893900e-01 2.908873e+03 
2.906300e-01 2.895483e+03 
2.918900e-01 2.882020e+03 
2.930500e-01 2.869753e+03 
2.942500e-01 2.857207e+03 
2.954200e-01 2.845157e+03 
2.966500e-01 2.832616e+03 
2.978900e-01 2.820102e+03 
2.990400e-01 2.808612e+03 
3.002700e-01 2.796290e+03 
3.015100e-01 2.783919e+03 
3.026800e-01 2.772362e+03 
3.038500e-01 2.760915e+03 
3.050300e-01 2.749481e+03 
3.062600e-01 2.737767e+03 
3.075000e-01 2.726076e+03 
3.087000e-01 2.714872e+03 
3.099100e-01 2.703684e+03 
3.111200e-01 2.692567e+03 
3.123100e-01 2.681677e+03 
3.135300e-01 2.670619e+03 
3.147300e-01 2.659845e+03 
3.159900e-01 2.648642e+03 
3.171800e-01 2.638116e+03 
3.183700e-01 2.627659e+03 
3.196300e-01 2.616691e+03 
3.208400e-01 2.606259e+03 
3.220300e-01 2.596094e+03 
3.232000e-01 2.586217e+03 
3.244300e-01 2.575940e+03 
3.256700e-01 2.565677e+03 
3.269200e-01 2.555429e+03 
3.280800e-01 2.546005e+03 
3.292500e-01 2.536591e+03 
3.304800e-01 2.526786e+03 
3.317100e-01 2.517071e+03 
3.328900e-01 2.507835e+03 
3.340700e-01 2.498680e+03 
3.353600e-01 2.488784e+03 
3.365300e-01 2.479898e+03 
3.377100e-01 2.471014e+03 
3.389200e-01 2.461983e+03 
3.401600e-01 2.452812e+03 
3.413700e-01 2.443945e+03 
3.425300e-01 2.435521e+03 
3.437700e-01 2.426593e+03 
3.449800e-01 2.417959e+03 
3.461800e-01 2.409470e+03 
3.473600e-01 2.401198e+03 
3.485800e-01 2.392728e+03 
3.498100e-01 2.384263e+03 
3.510200e-01 2.376008e+03 
3.522000e-01 2.368025e+03 
3.533900e-01 2.360043e+03 
3.546400e-01 2.351812e+03 
3.558400e-01 2.343983e+03 
3.570600e-01 2.336091e+03 
3.582700e-01 2.328330e+03 
3.595000e-01 2.320508e+03 
3.607100e-01 2.312831e+03 
3.618900e-01 2.305369e+03 
3.631200e-01 2.297655e+03 
3.643200e-01 2.290192e+03 
3.655500e-01 2.282607e+03 
3.667300e-01 2.275390e+03 
3.679500e-01 2.267970e+03 
3.691900e-01 2.260491e+03 
3.703600e-01 2.253493e+03 
3.715700e-01 2.246313e+03 
3.727700e-01 2.239250e+03 
3.739900e-01 2.232136e+03 
3.752000e-01 2.225152e+03 
3.763900e-01 2.218339e+03 
3.775800e-01 2.211579e+03 
3.788200e-01 2.204593e+03 
3.800300e-01 2.197830e+03 
3.812100e-01 2.191272e+03 
3.824200e-01 2.184590e+03 
3.836100e-01 2.178071e+03 
3.848600e-01 2.171277e+03 
3.860400e-01 2.164914e+03 
3.872400e-01 2.158494e+03 
3.884600e-01 2.152028e+03 
3.896500e-01 2.145773e+03 
3.908700e-01 2.139411e+03 
3.920600e-01 2.133253e+03 
3.933100e-01 2.126836e+03 
3.945300e-01 2.120622e+03 
3.957200e-01 2.114541e+03 
3.969300e-01 2.108385e+03 
3.981700e-01 2.102126e+03 
3.993500e-01 2.096215e+03 
4.094840e-01 2.047225e+03 
4.272360e-01 1.967237e+03 
4.454600e-01 1.891617e+03 
4.630560e-01 1.824314e+03 
4.804610e-01 1.761929e+03 
4.980690e-01 1.703494e+03 
5.159230e-01 1.647704e+03 
5.317440e-01 1.601461e+03 
5.489640e-01 1.553782e+03 
5.671990e-01 1.506177e+03 
5.838690e-01 1.465180e+03 
6.018840e-01 1.423286e+03 
6.202330e-01 1.382508e+03 
6.379250e-01 1.345555e+03 
6.545410e-01 1.312235e+03 
6.714560e-01 1.279868e+03 
6.892080e-01 1.247263e+03 
7.066010e-01 1.216850e+03 
7.240540e-01 1.187513e+03 
7.420450e-01 1.158246e+03 
7.593780e-01 1.131369e+03 
7.764720e-01 1.105613e+03 
7.942840e-01 1.079729e+03 
8.116170e-01 1.055570e+03 
8.288310e-01 1.032248e+03 
8.462240e-01 1.009530e+03 
8.631980e-01 9.879654e+02 
8.810700e-01 9.660121e+02 
8.989410e-01 9.447761e+02 
9.166330e-01 9.244676e+02 
9.345640e-01 9.043879e+02 
9.515980e-01 8.859155e+02 
9.688720e-01 8.677090e+02 
9.865640e-01 8.495770e+02 
1.031870e+00 8.055779e+02 
1.063490e+00 7.767769e+02 
1.097920e+00 7.468268e+02 
1.134370e+00 7.169362e+02 
1.167730e+00 6.911375e+02 
1.203830e+00 6.644965e+02 
1.240470e+00 6.390127e+02 
1.275790e+00 6.156275e+02 
1.309140e+00 5.946343e+02 
1.342970e+00 5.743561e+02 
1.378420e+00 5.541261e+02 
1.413200e+00 5.352852e+02 
1.448110e+00 5.172508e+02 
1.484090e+00 4.995377e+02 
1.518820e+00 4.832350e+02 
1.552880e+00 4.680274e+02 
1.588630e+00 4.527410e+02 
1.623230e+00 4.385864e+02 
1.657720e+00 4.251257e+02 
1.692450e+00 4.121649e+02 
1.726400e+00 4.000251e+02 
1.762200e+00 3.878236e+02 
1.797880e+00 3.761178e+02 
1.833270e+00 3.650460e+02 
1.869070e+00 3.542991e+02 
1.903200e+00 3.444615e+02 
1.937740e+00 3.348824e+02 
1.973190e+00 3.254529e+02 
2.007440e+00 3.167341e+02 
2.042160e+00 3.082216e+02 
2.077900e+00 2.997843e+02 
2.112390e+00 2.919420e+02 
2.146220e+00 2.845739e+02 
2.181600e+00 2.770912e+02 
2.216930e+00 2.699192e+02 
2.250760e+00 2.633302e+02 
2.286500e+00 2.566122e+02 
2.321770e+00 2.501897e+02 
2.355950e+00 2.442107e+02 
2.391280e+00 2.382322e+02 
2.426240e+00 2.325139e+02 
2.460670e+00 2.270814e+02 
2.495640e+00 2.217627e+02 
2.531080e+00 2.165077e+02 
2.566220e+00 2.114909e+02 
2.600830e+00 2.067281e+02 
2.635080e+00 2.021797e+02 
2.670340e+00 1.976023e+02 
2.705970e+00 1.931419e+02 
2.740040e+00 1.890181e+02 
2.774520e+00 1.849627e+02 
2.809730e+00 1.809640e+02 
2.844390e+00 1.771525e+02 
2.879960e+00 1.733521e+02 
2.914860e+00 1.697304e+02 
2.949410e+00 1.662487e+02 
2.984440e+00 1.628145e+02 
3.019760e+00 1.594639e+02 
3.054730e+00 1.562494e+02 
3.089030e+00 1.531786e+02 
3.124060e+00 1.501376e+02 
3.159560e+00 1.471521e+02 
3.194710e+00 1.442728e+02 
3.229010e+00 1.415391e+02 
3.263320e+00 1.388720e+02 
3.297930e+00 1.362583e+02 
3.332830e+00 1.337009e+02 
3.368040e+00 1.311867e+02 
3.403300e+00 1.287341e+02 
3.438450e+00 1.263618e+02 
3.473060e+00 1.240892e+02 
3.508440e+00 1.218199e+02 
3.543110e+00 1.196532e+02 
3.577470e+00 1.175557e+02 
3.613040e+00 1.154418e+02 
3.648120e+00 1.134154e+02 
3.682910e+00 1.114545e+02 
3.718050e+00 1.095196e+02 
3.753320e+00 1.076284e+02 
3.787980e+00 1.058193e+02 
3.822290e+00 1.040696e+02 
3.857020e+00 1.023380e+02 
3.891920e+00 1.006413e+02 
3.926650e+00 9.899654e+01 
3.961970e+00 9.736191e+01 
3.997360e+00 9.575964e+01 
4.031670e+00 9.424313e+01 
4.066330e+00 9.275061e+01 
4.101420e+00 9.127397e+01 
4.136200e+00 8.984843e+01 
4.170810e+00 8.846126e+01 
4.206250e+00 8.706951e+01 
4.241580e+00 8.571244e+01 
4.276300e+00 8.440572e+01 
4.310970e+00 8.312772e+01 
4.346120e+00 8.186174e+01 
4.380600e+00 8.064940e+01 
4.414730e+00 7.947446e+01 
4.450350e+00 7.827883e+01 
4.485320e+00 7.712972e+01 
4.519810e+00 7.601781e+01 
4.555430e+00 7.489230e+01 
4.590870e+00 7.379703e+01 
4.625480e+00 7.275181e+01 
4.659910e+00 7.173269e+01 
4.695230e+00 7.071185e+01 
4.729960e+00 6.972858e+01 
4.764450e+00 6.877024e+01 
4.799530e+00 6.781300e+01 
4.834910e+00 6.686649e+01 
4.869700e+00 6.595687e+01 
4.904370e+00 6.506816e+01 
4.939450e+00 6.418546e+01 
4.973940e+00 6.333250e+01 
5.008430e+00 6.249537e+01 
5.043810e+00 6.165484e+01 
5.078840e+00 6.083941e+01 
5.113500e+00 6.004743e+01 
5.148890e+00 5.925667e+01 
5.184210e+00 5.848211e+01 
5.219060e+00 5.773125e+01 
5.253660e+00 5.699777e+01 
5.288570e+00 5.627086e+01 
5.323420e+00 5.555946e+01 
5.358440e+00 5.485875e+01 
5.393590e+00 5.416782e+01 
5.428310e+00 5.349898e+01 
5.462800e+00 5.284689e+01 
5.497640e+00 5.219942e+01 
5.532670e+00 5.155836e+01 
5.567280e+00 5.093534e+01 
5.602000e+00 5.032084e+01 
5.637270e+00 4.970910e+01 
5.672410e+00 4.911034e+01 
5.707020e+00 4.853039e+01 
5.742040e+00 4.795524e+01 
5.777430e+00 4.738404e+01 
5.812210e+00 4.683188e+01 
5.846820e+00 4.629014e+01 
5.881610e+00 4.575404e+01 
5.916510e+00 4.522487e+01 
5.951600e+00 4.470060e+01 
5.986560e+00 4.418629e+01 
6.021830e+00 4.367568e+01 
6.056490e+00 4.318283e+01 
6.091160e+00 4.269838e+01 
6.125830e+00 4.222141e+01 
6.161090e+00 4.174441e+01 
6.195760e+00 4.128387e+01 
6.230420e+00 4.083045e+01 
6.265690e+00 4.037606e+01 
6.300950e+00 3.992795e+01 
6.335620e+00 3.949401e+01 
6.370880e+00 3.905931e+01 
6.405550e+00 3.863935e+01 
6.440220e+00 3.822602e+01 
6.475480e+00 3.781187e+01 
6.510150e+00 3.741041e+01 
6.544810e+00 3.701434e+01 
6.580080e+00 3.661719e+01 
6.614750e+00 3.623247e+01 
6.649410e+00 3.585467e+01 
6.684080e+00 3.548241e+01 
6.719340e+00 3.510923e+01 
6.754010e+00 3.474728e+01 
6.788680e+00 3.438986e+01 
6.823940e+00 3.403150e+01 
6.859800e+00 3.367225e+01 
6.894470e+00 3.332931e+01 
6.929140e+00 3.299094e+01 
6.963800e+00 3.265733e+01 
6.999070e+00 3.232262e+01 
7.033730e+00 3.199945e+01 
7.068400e+00 3.168058e+01 
7.103660e+00 3.136070e+01 
7.138330e+00 3.105025e+01 
7.173600e+00 3.073831e+01 
7.208260e+00 3.043588e+01 
7.243530e+00 3.013227e+01 
7.277600e+00 2.984347e+01 
7.312860e+00 2.954909e+01 
7.348120e+00 2.925863e+01 
7.382790e+00 2.897679e+01 
7.417460e+00 2.869827e+01 
7.452720e+00 2.841852e+01 
7.487390e+00 2.814703e+01 
7.522650e+00 2.787450e+01 
7.557320e+00 2.760965e+01 
7.591990e+00 2.734806e+01 
7.627250e+00 2.708543e+01 
7.662510e+00 2.682618e+01 
7.697180e+00 2.657419e+01 
7.731850e+00 2.632524e+01 
7.766510e+00 2.607948e+01 
7.801180e+00 2.583672e+01 
7.836440e+00 2.559358e+01 
7.871110e+00 2.535789e+01 
7.906380e+00 2.512110e+01 
7.941040e+00 2.489129e+01 
7.976310e+00 2.465951e+01 
8.011570e+00 2.442971e+01 
8.046240e+00 2.420653e+01 
8.080900e+00 2.398611e+01 
8.115570e+00 2.376851e+01 
8.150830e+00 2.355064e+01 
8.185500e+00 2.333901e+01 
8.220770e+00 2.312631e+01 
8.255430e+00 2.291979e+01 
8.290100e+00 2.271647e+01 
8.324770e+00 2.251563e+01 
8.359430e+00 2.231721e+01 
8.394700e+00 2.211767e+01 
8.429960e+00 2.191988e+01 
8.464630e+00 2.172697e+01 
8.499890e+00 2.153308e+01 
8.534560e+00 2.134466e+01 
8.569200e+00 2.115857e+01 
