# Parameters:
# omega_b = 0.022270, omega_m = 0.141300, n_s = 0.968100, h = 67.900000, w = -1.200000, sigma_8 = 0.815400
# z = 0.000000
#
# k[1/Mpc] # P(k):
8.694000e-04 1.510228e+04 
2.077466e-03 3.275687e+04 
3.285532e-03 4.660212e+04 
4.493598e-03 5.727920e+04 
5.701664e-03 6.525092e+04 
6.909730e-03 7.094082e+04 
8.117797e-03 7.483503e+04 
9.325863e-03 7.718552e+04 
1.053393e-02 7.825008e+04 
1.174199e-02 7.826904e+04 
1.295006e-02 7.739305e+04 
1.415813e-02 7.582658e+04 
1.536619e-02 7.374077e+04 
1.657426e-02 7.119646e+04 
1.778233e-02 6.811295e+04 
1.899039e-02 6.477944e+04 
2.019846e-02 6.167081e+04 
2.140652e-02 5.883947e+04 
2.261459e-02 5.614756e+04 
2.382266e-02 5.357825e+04 
2.503072e-02 5.115705e+04 
2.623879e-02 4.889983e+04 
2.744685e-02 4.681104e+04 
2.865492e-02 4.489781e+04 
2.986299e-02 4.315457e+04 
3.100100e-02 4.166500e+04 
3.220400e-02 4.023783e+04 
3.288100e-02 3.949793e+04 
3.424300e-02 3.813364e+04 
3.555100e-02 3.696762e+04 
3.686000e-02 3.591146e+04 
3.795000e-02 3.510731e+04 
3.929100e-02 3.419868e+04 
4.039800e-02 3.349812e+04 
4.164000e-02 3.274579e+04 
4.294400e-02 3.197989e+04 
4.415000e-02 3.129597e+04 
4.542900e-02 3.056499e+04 
4.660900e-02 2.989135e+04 
4.782300e-02 2.918025e+04 
4.892900e-02 2.852403e+04 
5.031200e-02 2.768689e+04 
5.155900e-02 2.691588e+04 
5.238100e-02 2.640212e+04 
5.378200e-02 2.552190e+04 
5.513400e-02 2.466342e+04 
5.627600e-02 2.394279e+04 
5.735300e-02 2.327284e+04 
5.870100e-02 2.244671e+04 
5.988700e-02 2.174196e+04 
6.113500e-02 2.102698e+04 
6.225900e-02 2.040865e+04 
6.340100e-02 1.980724e+04 
6.480200e-02 1.911342e+04 
6.601100e-02 1.855522e+04 
6.725500e-02 1.802056e+04 
6.829100e-02 1.761038e+04 
6.958600e-02 1.713360e+04 
7.071100e-02 1.675326e+04 
7.192300e-02 1.637605e+04 
7.307400e-02 1.604772e+04 
7.412300e-02 1.577175e+04 
7.550400e-02 1.544092e+04 
7.663100e-02 1.519159e+04 
7.791200e-02 1.492966e+04 
7.912700e-02 1.469909e+04 
8.027600e-02 1.449031e+04 
8.138400e-02 1.429583e+04 
8.272200e-02 1.406761e+04 
8.406100e-02 1.384254e+04 
8.534100e-02 1.362617e+04 
8.653800e-02 1.341899e+04 
8.759800e-02 1.323388e+04 
8.900300e-02 1.298424e+04 
9.009000e-02 1.278474e+04 
9.113300e-02 1.258948e+04 
9.239600e-02 1.235135e+04 
9.358000e-02 1.212342e+04 
9.496100e-02 1.185664e+04 
9.608400e-02 1.164083e+04 
9.727500e-02 1.141399e+04 
9.852600e-02 1.117707e+04 
9.973800e-02 1.095402e+04 
1.009000e-01 1.074604e+04 
1.020900e-01 1.053917e+04 
1.034000e-01 1.032098e+04 
1.046000e-01 1.013014e+04 
1.057200e-01 9.961587e+03 
1.069100e-01 9.789676e+03 
1.082500e-01 9.609668e+03 
1.093900e-01 9.464090e+03 
1.105400e-01 9.322886e+03 
1.116900e-01 9.192383e+03 
1.129600e-01 9.054265e+03 
1.142000e-01 8.928142e+03 
1.153300e-01 8.818121e+03 
1.166400e-01 8.696969e+03 
1.177800e-01 8.594996e+03 
1.190000e-01 8.488876e+03 
1.201200e-01 8.395156e+03 
1.213400e-01 8.295723e+03 
1.227100e-01 8.185234e+03 
1.238900e-01 8.092010e+03 
1.250700e-01 7.999438e+03 
1.263200e-01 7.902599e+03 
1.275500e-01 7.807168e+03 
1.287500e-01 7.715303e+03 
1.299900e-01 7.621114e+03 
1.311300e-01 7.534848e+03 
1.323500e-01 7.442143e+03 
1.335900e-01 7.349333e+03 
1.347100e-01 7.266365e+03 
1.359800e-01 7.173667e+03 
1.372100e-01 7.084599e+03 
1.384300e-01 6.997780e+03 
1.395700e-01 6.917387e+03 
1.407700e-01 6.834416e+03 
1.420300e-01 6.748297e+03 
1.432800e-01 6.664711e+03 
1.444500e-01 6.589046e+03 
1.456300e-01 6.514253e+03 
1.468900e-01 6.436078e+03 
1.480500e-01 6.365573e+03 
1.491700e-01 6.299324e+03 
1.503800e-01 6.229810e+03 
1.516400e-01 6.159189e+03 
1.528200e-01 6.095731e+03 
1.540200e-01 6.032421e+03 
1.551900e-01 5.973157e+03 
1.564300e-01 5.911850e+03 
1.576600e-01 5.852454e+03 
1.588700e-01 5.795423e+03 
1.600900e-01 5.739049e+03 
1.612700e-01 5.686614e+03 
1.625400e-01 5.631221e+03 
1.637600e-01 5.578787e+03 
1.649500e-01 5.528432e+03 
1.662200e-01 5.475656e+03 
1.674000e-01 5.427447e+03 
1.685000e-01 5.383250e+03 
1.697500e-01 5.333612e+03 
1.710300e-01 5.283436e+03 
1.722200e-01 5.237607e+03 
1.734400e-01 5.190672e+03 
1.746400e-01 5.145259e+03 
1.758700e-01 5.099246e+03 
1.770900e-01 5.053868e+03 
1.782700e-01 5.010701e+03 
1.794600e-01 4.967470e+03 
1.807000e-01 4.922894e+03 
1.819100e-01 4.880114e+03 
1.830100e-01 4.841891e+03 
1.842200e-01 4.800502e+03 
1.855000e-01 4.757458e+03 
1.867000e-01 4.718170e+03 
1.879200e-01 4.678858e+03 
1.890900e-01 4.641737e+03 
1.902800e-01 4.604536e+03 
1.915200e-01 4.566374e+03 
1.926900e-01 4.531059e+03 
1.939000e-01 4.495549e+03 
1.951700e-01 4.458856e+03 
1.963100e-01 4.426559e+03 
1.975100e-01 4.393441e+03 
1.987800e-01 4.358924e+03 
2.000100e-01 4.326060e+03 
2.012500e-01 4.293556e+03 
2.023400e-01 4.265386e+03 
2.036100e-01 4.233061e+03 
2.048900e-01 4.201105e+03 
2.060400e-01 4.172808e+03 
2.072200e-01 4.144183e+03 
2.084200e-01 4.115604e+03 
2.096900e-01 4.085795e+03 
2.109200e-01 4.057342e+03 
2.121100e-01 4.030074e+03 
2.132700e-01 4.003846e+03 
2.145200e-01 3.975971e+03 
2.157200e-01 3.949545e+03 
2.168800e-01 3.924324e+03 
2.180700e-01 3.898792e+03 
2.193400e-01 3.871913e+03 
2.206000e-01 3.845611e+03 
2.217500e-01 3.821925e+03 
2.229500e-01 3.797527e+03 
2.241400e-01 3.773775e+03 
2.253500e-01 3.749942e+03 
2.264900e-01 3.727773e+03 
2.277100e-01 3.704684e+03 
2.289900e-01 3.681154e+03 
2.301500e-01 3.660107e+03 
2.313600e-01 3.638431e+03 
2.325600e-01 3.617498e+03 
2.337700e-01 3.596658e+03 
2.350000e-01 3.575744e+03 
2.362000e-01 3.555952e+03 
2.374100e-01 3.536664e+03 
2.386500e-01 3.517148e+03 
2.399100e-01 3.497573e+03 
2.410400e-01 3.480452e+03 
2.422500e-01 3.462366e+03 
2.435000e-01 3.443917e+03 
2.447300e-01 3.426141e+03 
2.458700e-01 3.410469e+03 
2.470600e-01 3.394303e+03 
2.483300e-01 3.377264e+03 
2.495600e-01 3.360967e+03 
2.507600e-01 3.345257e+03 
2.519600e-01 3.329735e+03 
2.532200e-01 3.313636e+03 
2.543700e-01 3.299108e+03 
2.555500e-01 3.284366e+03 
2.568000e-01 3.268935e+03 
2.580100e-01 3.254177e+03 
2.592400e-01 3.239239e+03 
2.604100e-01 3.225145e+03 
2.616100e-01 3.210853e+03 
2.628400e-01 3.196375e+03 
2.640600e-01 3.181983e+03 
2.652200e-01 3.168373e+03 
2.664300e-01 3.154335e+03 
2.676500e-01 3.140342e+03 
2.688400e-01 3.126452e+03 
2.700700e-01 3.112009e+03 
2.712400e-01 3.098421e+03 
2.724800e-01 3.084179e+03 
2.736700e-01 3.070530e+03 
2.748800e-01 3.056666e+03 
2.761000e-01 3.042841e+03 
2.773200e-01 3.029167e+03 
2.785400e-01 3.015476e+03 
2.797000e-01 3.002249e+03 
2.808900e-01 2.988821e+03 
2.821400e-01 2.974867e+03 
2.833900e-01 2.961054e+03 
2.845500e-01 2.948121e+03 
2.857800e-01 2.934549e+03 
2.870300e-01 2.920904e+03 
2.882100e-01 2.908157e+03 
2.893900e-01 2.895309e+03 
2.906300e-01 2.881823e+03 
2.918900e-01 2.868265e+03 
2.930500e-01 2.855909e+03 
2.942500e-01 2.843248e+03 
2.954200e-01 2.831009e+03 
2.966500e-01 2.818270e+03 
2.978900e-01 2.805558e+03 
2.990400e-01 2.793886e+03 
3.002700e-01 2.781334e+03 
3.015100e-01 2.768715e+03 
3.026800e-01 2.756926e+03 
3.038500e-01 2.745249e+03 
3.050300e-01 2.733584e+03 
3.062600e-01 2.721583e+03 
3.075000e-01 2.709604e+03 
3.087000e-01 2.698125e+03 
3.099100e-01 2.686661e+03 
3.111200e-01 2.675268e+03 
3.123100e-01 2.664105e+03 
3.135300e-01 2.652768e+03 
3.147300e-01 2.641723e+03 
3.159900e-01 2.630236e+03 
3.171800e-01 2.619439e+03 
3.183700e-01 2.608708e+03 
3.196300e-01 2.597452e+03 
3.208400e-01 2.586746e+03 
3.220300e-01 2.576313e+03 
3.232000e-01 2.566179e+03 
3.244300e-01 2.555635e+03 
3.256700e-01 2.545105e+03 
3.269200e-01 2.534589e+03 
3.280800e-01 2.524919e+03 
3.292500e-01 2.515276e+03 
3.304800e-01 2.505237e+03 
3.317100e-01 2.495290e+03 
3.328900e-01 2.485833e+03 
3.340700e-01 2.476458e+03 
3.353600e-01 2.466331e+03 
3.365300e-01 2.457239e+03 
3.377100e-01 2.448148e+03 
3.389200e-01 2.438907e+03 
3.401600e-01 2.429522e+03 
3.413700e-01 2.420463e+03 
3.425300e-01 2.411865e+03 
3.437700e-01 2.402754e+03 
3.449800e-01 2.393941e+03 
3.461800e-01 2.385277e+03 
3.473600e-01 2.376840e+03 
3.485800e-01 2.368217e+03 
3.498100e-01 2.359599e+03 
3.510200e-01 2.351195e+03 
3.522000e-01 2.343068e+03 
3.533900e-01 2.334940e+03 
3.546400e-01 2.326588e+03 
3.558400e-01 2.318646e+03 
3.570600e-01 2.310639e+03 
3.582700e-01 2.302765e+03 
3.595000e-01 2.294829e+03 
3.607100e-01 2.287052e+03 
3.618900e-01 2.279503e+03 
3.631200e-01 2.271699e+03 
3.643200e-01 2.264149e+03 
3.655500e-01 2.256474e+03 
3.667300e-01 2.249172e+03 
3.679500e-01 2.241691e+03 
3.691900e-01 2.234151e+03 
3.703600e-01 2.227095e+03 
3.715700e-01 2.219856e+03 
3.727700e-01 2.212734e+03 
3.739900e-01 2.205566e+03 
3.752000e-01 2.198540e+03 
3.763900e-01 2.191684e+03 
3.775800e-01 2.184883e+03 
3.788200e-01 2.177852e+03 
3.800300e-01 2.171048e+03 
3.812100e-01 2.164463e+03 
3.824200e-01 2.157763e+03 
3.836100e-01 2.151226e+03 
3.848600e-01 2.144413e+03 
3.860400e-01 2.138033e+03 
3.872400e-01 2.131595e+03 
3.884600e-01 2.125117e+03 
3.896500e-01 2.118854e+03 
3.908700e-01 2.112483e+03 
3.920600e-01 2.106316e+03 
3.933100e-01 2.099890e+03 
3.945300e-01 2.093667e+03 
3.957200e-01 2.087588e+03 
3.969300e-01 2.081438e+03 
3.981700e-01 2.075184e+03 
3.993500e-01 2.069279e+03 
4.094840e-01 2.020378e+03 
4.272360e-01 1.940637e+03 
4.454600e-01 1.865259e+03 
4.630560e-01 1.798069e+03 
4.804610e-01 1.735687e+03 
4.980690e-01 1.677108e+03 
5.159230e-01 1.621111e+03 
5.317440e-01 1.574657e+03 
5.489640e-01 1.526677e+03 
5.671990e-01 1.478772e+03 
5.838690e-01 1.437500e+03 
6.018840e-01 1.395339e+03 
6.202330e-01 1.354311e+03 
6.379250e-01 1.317140e+03 
6.545410e-01 1.283650e+03 
6.714560e-01 1.251127e+03 
6.892080e-01 1.218387e+03 
7.066010e-01 1.187857e+03 
7.240540e-01 1.158408e+03 
7.420450e-01 1.129062e+03 
7.593780e-01 1.102118e+03 
7.764720e-01 1.076304e+03 
7.942840e-01 1.050395e+03 
8.116170e-01 1.026185e+03 
8.288310e-01 1.002840e+03 
8.462240e-01 9.801020e+02 
8.631980e-01 9.585249e+02 
8.810700e-01 9.365602e+02 
8.989410e-01 9.153251e+02 
9.166330e-01 8.950252e+02 
9.345640e-01 8.749559e+02 
9.515980e-01 8.564988e+02 
9.688720e-01 8.383195e+02 
9.865640e-01 8.202148e+02 
1.031870e+00 7.763241e+02 
1.063490e+00 7.476211e+02 
1.097920e+00 7.177958e+02 
1.134370e+00 6.880698e+02 
1.167730e+00 6.624345e+02 
1.203830e+00 6.359887e+02 
1.240470e+00 6.107249e+02 
1.275790e+00 5.875784e+02 
1.309140e+00 5.668161e+02 
1.342970e+00 5.467912e+02 
1.378420e+00 5.268402e+02 
1.413200e+00 5.082773e+02 
1.448110e+00 4.905320e+02 
1.484090e+00 4.731297e+02 
1.518820e+00 4.571308e+02 
1.552880e+00 4.422277e+02 
1.588630e+00 4.272637e+02 
1.623230e+00 4.134292e+02 
1.657720e+00 4.002859e+02 
1.692450e+00 3.876494e+02 
1.726400e+00 3.758223e+02 
1.762200e+00 3.639518e+02 
1.797880e+00 3.525786e+02 
1.833270e+00 3.418342e+02 
1.869070e+00 3.314192e+02 
1.903200e+00 3.218941e+02 
1.937740e+00 3.126305e+02 
1.973190e+00 3.035214e+02 
2.007440e+00 2.951078e+02 
2.042160e+00 2.869024e+02 
2.077900e+00 2.787791e+02 
2.112390e+00 2.712362e+02 
2.146220e+00 2.641562e+02 
2.181600e+00 2.569753e+02 
2.216930e+00 2.500989e+02 
2.250760e+00 2.437867e+02 
2.286500e+00 2.373574e+02 
2.321770e+00 2.312180e+02 
2.355950e+00 2.255066e+02 
2.391280e+00 2.198026e+02 
2.426240e+00 2.143518e+02 
2.460670e+00 2.091777e+02 
2.495640e+00 2.041162e+02 
2.531080e+00 1.991215e+02 
2.566220e+00 1.943568e+02 
2.600830e+00 1.898368e+02 
2.635080e+00 1.855233e+02 
2.670340e+00 1.811877e+02 
2.705970e+00 1.769662e+02 
2.740040e+00 1.730660e+02 
2.774520e+00 1.692340e+02 
2.809730e+00 1.654582e+02 
2.844390e+00 1.618617e+02 
2.879960e+00 1.582787e+02 
2.914860e+00 1.548675e+02 
2.949410e+00 1.515904e+02 
2.984440e+00 1.483609e+02 
3.019760e+00 1.452121e+02 
3.054730e+00 1.421929e+02 
3.089030e+00 1.393116e+02 
3.124060e+00 1.364598e+02 
3.159560e+00 1.336618e+02 
3.194710e+00 1.309658e+02 
3.229010e+00 1.284076e+02 
3.263320e+00 1.259139e+02 
3.297930e+00 1.234713e+02 
3.332830e+00 1.210829e+02 
3.368040e+00 1.187366e+02 
3.403300e+00 1.164493e+02 
3.438450e+00 1.142382e+02 
3.473060e+00 1.121210e+02 
3.508440e+00 1.100091e+02 
3.543110e+00 1.079935e+02 
3.577470e+00 1.060439e+02 
3.613040e+00 1.040799e+02 
3.648120e+00 1.021985e+02 
3.682910e+00 1.003787e+02 
3.718050e+00 9.858449e+01 
3.753320e+00 9.683171e+01 
3.787980e+00 9.515594e+01 
3.822290e+00 9.353608e+01 
3.857020e+00 9.193401e+01 
3.891920e+00 9.036501e+01 
3.926650e+00 8.884489e+01 
3.961970e+00 8.733484e+01 
3.997360e+00 8.585579e+01 
4.031670e+00 8.445643e+01 
4.066330e+00 8.308013e+01 
4.101420e+00 8.171886e+01 
4.136200e+00 8.040563e+01 
4.170810e+00 7.912810e+01 
4.206250e+00 7.784738e+01 
4.241580e+00 7.659904e+01 
4.276300e+00 7.539781e+01 
4.310970e+00 7.422356e+01 
4.346120e+00 7.306087e+01 
4.380600e+00 7.194810e+01 
4.414730e+00 7.086994e+01 
4.450350e+00 6.977352e+01 
4.485320e+00 6.872004e+01 
4.519810e+00 6.770140e+01 
4.555430e+00 6.667077e+01 
4.590870e+00 6.566821e+01 
4.625480e+00 6.471197e+01 
4.659910e+00 6.377984e+01 
4.695230e+00 6.284678e+01 
4.729960e+00 6.194833e+01 
4.764450e+00 6.107308e+01 
4.799530e+00 6.019940e+01 
4.834910e+00 5.933572e+01 
4.869700e+00 5.850622e+01 
4.904370e+00 5.769602e+01 
4.939450e+00 5.689163e+01 
4.973940e+00 5.611491e+01 
5.008430e+00 5.535278e+01 
5.043810e+00 5.458795e+01 
5.078840e+00 5.384627e+01 
5.113500e+00 5.312607e+01 
5.148890e+00 5.240747e+01 
5.184210e+00 5.170377e+01 
5.219060e+00 5.102187e+01 
5.253660e+00 5.035626e+01 
5.288570e+00 4.969676e+01 
5.323420e+00 4.905160e+01 
5.358440e+00 4.841644e+01 
5.393590e+00 4.779026e+01 
5.428310e+00 4.718448e+01 
5.462800e+00 4.659411e+01 
5.497640e+00 4.600804e+01 
5.532670e+00 4.542818e+01 
5.567280e+00 4.486484e+01 
5.602000e+00 4.430931e+01 
5.637270e+00 4.375666e+01 
5.672410e+00 4.321589e+01 
5.707020e+00 4.269222e+01 
5.742040e+00 4.217322e+01 
5.777430e+00 4.165793e+01 
5.812210e+00 4.115992e+01 
5.846820e+00 4.067170e+01 
5.881610e+00 4.018872e+01 
5.916510e+00 3.971207e+01 
5.951600e+00 3.924019e+01 
5.986560e+00 3.877745e+01 
6.021830e+00 3.831813e+01 
6.056490e+00 3.787503e+01 
6.091160e+00 3.743969e+01 
6.125830e+00 3.701115e+01 
6.161090e+00 3.658274e+01 
6.195760e+00 3.616936e+01 
6.230420e+00 3.576245e+01 
6.265690e+00 3.535475e+01 
6.300950e+00 3.495308e+01 
6.335620e+00 3.456417e+01 
6.370880e+00 3.417465e+01 
6.405550e+00 3.379858e+01 
6.440220e+00 3.342858e+01 
6.475480e+00 3.305792e+01 
6.510150e+00 3.269876e+01 
6.544810e+00 3.234471e+01 
6.580080e+00 3.198974e+01 
6.614750e+00 3.164594e+01 
6.649410e+00 3.130860e+01 
6.684080e+00 3.097629e+01 
6.719340e+00 3.064321e+01 
6.754010e+00 3.032029e+01 
6.788680e+00 3.000165e+01 
6.823940e+00 2.968221e+01 
6.859800e+00 2.936203e+01 
6.894470e+00 2.905666e+01 
6.929140e+00 2.875548e+01 
6.963800e+00 2.845857e+01 
6.999070e+00 2.816075e+01 
7.033730e+00 2.787344e+01 
7.068400e+00 2.758999e+01 
7.103660e+00 2.730569e+01 
7.138330e+00 2.702989e+01 
7.173600e+00 2.675300e+01 
7.208260e+00 2.648459e+01 
7.243530e+00 2.621515e+01 
7.277600e+00 2.595903e+01 
7.312860e+00 2.569808e+01 
7.348120e+00 2.544064e+01 
7.382790e+00 2.519088e+01 
7.417460e+00 2.494425e+01 
7.452720e+00 2.469664e+01 
7.487390e+00 2.445638e+01 
7.522650e+00 2.421523e+01 
7.557320e+00 2.398108e+01 
7.591990e+00 2.374990e+01 
7.627250e+00 2.351783e+01 
7.662510e+00 2.328877e+01 
7.697180e+00 2.306632e+01 
7.731850e+00 2.284666e+01 
7.766510e+00 2.262982e+01 
7.801180e+00 2.241566e+01 
7.836440e+00 2.220130e+01 
7.871110e+00 2.199362e+01 
7.906380e+00 2.178499e+01 
7.941040e+00 2.158252e+01 
7.976310e+00 2.137844e+01 
8.011570e+00 2.117626e+01 
8.046240e+00 2.097992e+01 
8.080900e+00 2.078603e+01 
8.115570e+00 2.059467e+01 
8.150830e+00 2.040327e+01 
8.185500e+00 2.021736e+01 
8.220770e+00 2.003052e+01 
8.255430e+00 1.984914e+01 
8.290100e+00 1.967072e+01 
8.324770e+00 1.949453e+01 
8.359430e+00 1.932046e+01 
8.394700e+00 1.914543e+01 
8.429960e+00 1.897205e+01 
8.464630e+00 1.880307e+01 
8.499890e+00 1.863324e+01 
8.534560e+00 1.846821e+01 
8.569200e+00 1.830523e+01 
