# Parameters:
# omega_b = 0.022270, omega_m = 0.145000, n_s = 0.968100, h = 67.900000, w = -1.000000, sigma_8 = 0.815400
# z = 0.000000
#
# k[1/Mpc] # P(k):
8.694000e-04 1.434313e+04 
2.077466e-03 3.082228e+04 
3.285532e-03 4.383306e+04 
4.493598e-03 5.395095e+04 
5.701664e-03 6.156930e+04 
6.909730e-03 6.707245e+04 
8.117797e-03 7.090712e+04 
9.325863e-03 7.330173e+04 
1.053393e-02 7.448848e+04 
1.174199e-02 7.468436e+04 
1.295006e-02 7.402713e+04 
1.415813e-02 7.270834e+04 
1.536619e-02 7.088940e+04 
1.657426e-02 6.870313e+04 
1.778233e-02 6.631892e+04 
1.899039e-02 6.384107e+04 
2.019846e-02 6.120793e+04 
2.140652e-02 5.849948e+04 
2.261459e-02 5.582365e+04 
2.382266e-02 5.325725e+04 
2.503072e-02 5.083923e+04 
2.623879e-02 4.858685e+04 
2.744685e-02 4.650542e+04 
2.865492e-02 4.460248e+04 
2.986299e-02 4.287272e+04 
3.100100e-02 4.139973e+04 
3.220400e-02 3.999446e+04 
3.288100e-02 3.926939e+04 
3.424300e-02 3.793963e+04 
3.555100e-02 3.681191e+04 
3.686000e-02 3.579873e+04 
3.795000e-02 3.503299e+04 
3.929100e-02 3.417488e+04 
4.039800e-02 3.351650e+04 
4.164000e-02 3.281053e+04 
4.294400e-02 3.209048e+04 
4.415000e-02 3.144483e+04 
4.542900e-02 3.074773e+04 
4.660900e-02 3.009941e+04 
4.782300e-02 2.940523e+04 
4.892900e-02 2.875819e+04 
5.031200e-02 2.792326e+04 
5.155900e-02 2.714558e+04 
5.238100e-02 2.662374e+04 
5.378200e-02 2.572440e+04 
5.513400e-02 2.484216e+04 
5.627600e-02 2.409914e+04 
5.735300e-02 2.340748e+04 
5.870100e-02 2.255465e+04 
5.988700e-02 2.182814e+04 
6.113500e-02 2.109280e+04 
6.225900e-02 2.045906e+04 
6.340100e-02 1.984525e+04 
6.480200e-02 1.914019e+04 
6.601100e-02 1.857648e+04 
6.725500e-02 1.803966e+04 
6.829100e-02 1.763044e+04 
6.958600e-02 1.715694e+04 
7.071100e-02 1.678139e+04 
7.192300e-02 1.641069e+04 
7.307400e-02 1.608938e+04 
7.412300e-02 1.582022e+04 
7.550400e-02 1.549863e+04 
7.663100e-02 1.525667e+04 
7.791200e-02 1.500274e+04 
7.912700e-02 1.477910e+04 
8.027600e-02 1.457625e+04 
8.138400e-02 1.438696e+04 
8.272200e-02 1.416429e+04 
8.406100e-02 1.394413e+04 
8.534100e-02 1.373185e+04 
8.653800e-02 1.352805e+04 
8.759800e-02 1.334572e+04 
8.900300e-02 1.309943e+04 
9.009000e-02 1.290223e+04 
9.113300e-02 1.270889e+04 
9.239600e-02 1.247275e+04 
9.358000e-02 1.224620e+04 
9.496100e-02 1.198017e+04 
9.608400e-02 1.176436e+04 
9.727500e-02 1.153704e+04 
9.852600e-02 1.129832e+04 
9.973800e-02 1.107299e+04 
1.009000e-01 1.086240e+04 
1.020900e-01 1.065187e+04 
1.034000e-01 1.042943e+04 
1.046000e-01 1.023449e+04 
1.057200e-01 1.006195e+04 
1.069100e-01 9.885941e+03 
1.082500e-01 9.701633e+03 
1.093900e-01 9.552815e+03 
1.105400e-01 9.408611e+03 
1.116900e-01 9.275908e+03 
1.129600e-01 9.135714e+03 
1.142000e-01 9.008454e+03 
1.153300e-01 8.897790e+03 
1.166400e-01 8.776479e+03 
1.177800e-01 8.674885e+03 
1.190000e-01 8.569402e+03 
1.201200e-01 8.476674e+03 
1.213400e-01 8.378373e+03 
1.227100e-01 8.269467e+03 
1.238900e-01 8.177597e+03 
1.250700e-01 8.086393e+03 
1.263200e-01 7.990925e+03 
1.275500e-01 7.896705e+03 
1.287500e-01 7.805900e+03 
1.299900e-01 7.712631e+03 
1.311300e-01 7.627042e+03 
1.323500e-01 7.534815e+03 
1.335900e-01 7.442326e+03 
1.347100e-01 7.359439e+03 
1.359800e-01 7.266700e+03 
1.372100e-01 7.177331e+03 
1.384300e-01 7.090121e+03 
1.395700e-01 7.009134e+03 
1.407700e-01 6.925524e+03 
1.420300e-01 6.838491e+03 
1.432800e-01 6.754018e+03 
1.444500e-01 6.677364e+03 
1.456300e-01 6.601594e+03 
1.468900e-01 6.522321e+03 
1.480500e-01 6.450803e+03 
1.491700e-01 6.383590e+03 
1.503800e-01 6.313048e+03 
1.516400e-01 6.241393e+03 
1.528200e-01 6.177048e+03 
1.540200e-01 6.112853e+03 
1.551900e-01 6.052855e+03 
1.564300e-01 5.990813e+03 
1.576600e-01 5.930777e+03 
1.588700e-01 5.873219e+03 
1.600900e-01 5.816334e+03 
1.612700e-01 5.763603e+03 
1.625400e-01 5.707896e+03 
1.637600e-01 5.655275e+03 
1.649500e-01 5.604806e+03 
1.662200e-01 5.551935e+03 
1.674000e-01 5.503782e+03 
1.685000e-01 5.459637e+03 
1.697500e-01 5.410115e+03 
1.710300e-01 5.360117e+03 
1.722200e-01 5.314449e+03 
1.734400e-01 5.267743e+03 
1.746400e-01 5.222552e+03 
1.758700e-01 5.176762e+03 
1.770900e-01 5.131599e+03 
1.782700e-01 5.088636e+03 
1.794600e-01 5.045572e+03 
1.807000e-01 5.001141e+03 
1.819100e-01 4.958500e+03 
1.830100e-01 4.920320e+03 
1.842200e-01 4.878965e+03 
1.855000e-01 4.835949e+03 
1.867000e-01 4.796558e+03 
1.879200e-01 4.757141e+03 
1.890900e-01 4.719897e+03 
1.902800e-01 4.682442e+03 
1.915200e-01 4.644019e+03 
1.926900e-01 4.608433e+03 
1.939000e-01 4.572549e+03 
1.951700e-01 4.535471e+03 
1.963100e-01 4.502806e+03 
1.975100e-01 4.469234e+03 
1.987800e-01 4.434243e+03 
2.000100e-01 4.400906e+03 
2.012500e-01 4.367883e+03 
2.023400e-01 4.339263e+03 
2.036100e-01 4.306415e+03 
2.048900e-01 4.273915e+03 
2.060400e-01 4.245137e+03 
2.072200e-01 4.216026e+03 
2.084200e-01 4.186975e+03 
2.096900e-01 4.156673e+03 
2.109200e-01 4.127751e+03 
2.121100e-01 4.100044e+03 
2.132700e-01 4.073394e+03 
2.145200e-01 4.045071e+03 
2.157200e-01 4.018226e+03 
2.168800e-01 3.992605e+03 
2.180700e-01 3.966669e+03 
2.193400e-01 3.939345e+03 
2.206000e-01 3.912573e+03 
2.217500e-01 3.888463e+03 
2.229500e-01 3.863629e+03 
2.241400e-01 3.839334e+03 
2.253500e-01 3.814952e+03 
2.264900e-01 3.792273e+03 
2.277100e-01 3.768538e+03 
2.289900e-01 3.744223e+03 
2.301500e-01 3.722473e+03 
2.313600e-01 3.700071e+03 
2.325600e-01 3.678137e+03 
2.337700e-01 3.656300e+03 
2.350000e-01 3.634384e+03 
2.362000e-01 3.613474e+03 
2.374100e-01 3.592890e+03 
2.386500e-01 3.572062e+03 
2.399100e-01 3.551168e+03 
2.410400e-01 3.532610e+03 
2.422500e-01 3.512967e+03 
2.435000e-01 3.492927e+03 
2.447300e-01 3.473561e+03 
2.458700e-01 3.456259e+03 
2.470600e-01 3.438409e+03 
2.483300e-01 3.419591e+03 
2.495600e-01 3.401546e+03 
2.507600e-01 3.384089e+03 
2.519600e-01 3.366838e+03 
2.532200e-01 3.348942e+03 
2.543700e-01 3.332824e+03 
2.555500e-01 3.316490e+03 
2.568000e-01 3.299390e+03 
2.580100e-01 3.283031e+03 
2.592400e-01 3.266615e+03 
2.604100e-01 3.251185e+03 
2.616100e-01 3.235537e+03 
2.628400e-01 3.219681e+03 
2.640600e-01 3.204132e+03 
2.652200e-01 3.189510e+03 
2.664300e-01 3.174427e+03 
2.676500e-01 3.159390e+03 
2.688400e-01 3.144665e+03 
2.700700e-01 3.129475e+03 
2.712400e-01 3.115185e+03 
2.724800e-01 3.100205e+03 
2.736700e-01 3.085986e+03 
2.748800e-01 3.071683e+03 
2.761000e-01 3.057419e+03 
2.773200e-01 3.043311e+03 
2.785400e-01 3.029256e+03 
2.797000e-01 3.015826e+03 
2.808900e-01 3.002191e+03 
2.821400e-01 2.988021e+03 
2.833900e-01 2.974001e+03 
2.845500e-01 2.961016e+03 
2.857800e-01 2.947390e+03 
2.870300e-01 2.933689e+03 
2.882100e-01 2.920891e+03 
2.893900e-01 2.908058e+03 
2.906300e-01 2.894622e+03 
2.918900e-01 2.881114e+03 
2.930500e-01 2.868805e+03 
2.942500e-01 2.856206e+03 
2.954200e-01 2.844071e+03 
2.966500e-01 2.831440e+03 
2.978900e-01 2.818838e+03 
2.990400e-01 2.807265e+03 
3.002700e-01 2.794840e+03 
3.015100e-01 2.782359e+03 
3.026800e-01 2.770697e+03 
3.038500e-01 2.759147e+03 
3.050300e-01 2.747609e+03 
3.062600e-01 2.735765e+03 
3.075000e-01 2.723942e+03 
3.087000e-01 2.712612e+03 
3.099100e-01 2.701298e+03 
3.111200e-01 2.690055e+03 
3.123100e-01 2.679039e+03 
3.135300e-01 2.667853e+03 
3.147300e-01 2.656955e+03 
3.159900e-01 2.645622e+03 
3.171800e-01 2.634970e+03 
3.183700e-01 2.624385e+03 
3.196300e-01 2.613283e+03 
3.208400e-01 2.602724e+03 
3.220300e-01 2.592434e+03 
3.232000e-01 2.582436e+03 
3.244300e-01 2.572034e+03 
3.256700e-01 2.561645e+03 
3.269200e-01 2.551270e+03 
3.280800e-01 2.541730e+03 
3.292500e-01 2.532209e+03 
3.304800e-01 2.522295e+03 
3.317100e-01 2.512471e+03 
3.328900e-01 2.503132e+03 
3.340700e-01 2.493874e+03 
3.353600e-01 2.483869e+03 
3.365300e-01 2.474886e+03 
3.377100e-01 2.465905e+03 
3.389200e-01 2.456776e+03 
3.401600e-01 2.447504e+03 
3.413700e-01 2.438547e+03 
3.425300e-01 2.430041e+03 
3.437700e-01 2.421027e+03 
3.449800e-01 2.412308e+03 
3.461800e-01 2.403737e+03 
3.473600e-01 2.395388e+03 
3.485800e-01 2.386847e+03 
3.498100e-01 2.378311e+03 
3.510200e-01 2.369987e+03 
3.522000e-01 2.361938e+03 
3.533900e-01 2.353888e+03 
3.546400e-01 2.345603e+03 
3.558400e-01 2.337723e+03 
3.570600e-01 2.329780e+03 
3.582700e-01 2.321969e+03 
3.595000e-01 2.314096e+03 
3.607100e-01 2.306376e+03 
3.618900e-01 2.298876e+03 
3.631200e-01 2.291124e+03 
3.643200e-01 2.283624e+03 
3.655500e-01 2.276000e+03 
3.667300e-01 2.268746e+03 
3.679500e-01 2.261303e+03 
3.691900e-01 2.253800e+03 
3.703600e-01 2.246779e+03 
3.715700e-01 2.239576e+03 
3.727700e-01 2.232490e+03 
3.739900e-01 2.225356e+03 
3.752000e-01 2.218357e+03 
3.763900e-01 2.211528e+03 
3.775800e-01 2.204754e+03 
3.788200e-01 2.197752e+03 
3.800300e-01 2.190975e+03 
3.812100e-01 2.184410e+03 
3.824200e-01 2.177727e+03 
3.836100e-01 2.171206e+03 
3.848600e-01 2.164410e+03 
3.860400e-01 2.158046e+03 
3.872400e-01 2.151625e+03 
3.884600e-01 2.145160e+03 
3.896500e-01 2.138908e+03 
3.908700e-01 2.132548e+03 
3.920600e-01 2.126393e+03 
3.933100e-01 2.119978e+03 
3.945300e-01 2.113767e+03 
3.957200e-01 2.107694e+03 
3.969300e-01 2.101548e+03 
3.981700e-01 2.095299e+03 
3.993500e-01 2.089398e+03 
4.094840e-01 2.040513e+03 
4.272360e-01 1.960748e+03 
4.454600e-01 1.885339e+03 
4.630560e-01 1.818161e+03 
4.804610e-01 1.755831e+03 
4.980690e-01 1.697365e+03 
5.159230e-01 1.641500e+03 
5.317440e-01 1.595174e+03 
5.489640e-01 1.547355e+03 
5.671990e-01 1.499608e+03 
5.838690e-01 1.458473e+03 
6.018840e-01 1.416441e+03 
6.202330e-01 1.375524e+03 
6.379250e-01 1.338445e+03 
6.545410e-01 1.305017e+03 
6.714560e-01 1.272543e+03 
6.892080e-01 1.239834e+03 
7.066010e-01 1.209322e+03 
7.240540e-01 1.179881e+03 
7.420450e-01 1.150518e+03 
7.593780e-01 1.123551e+03 
7.764720e-01 1.097703e+03 
7.942840e-01 1.071739e+03 
8.116170e-01 1.047483e+03 
8.288310e-01 1.024074e+03 
8.462240e-01 1.001269e+03 
8.631980e-01 9.796184e+02 
8.810700e-01 9.575727e+02 
8.989410e-01 9.362494e+02 
9.166330e-01 9.158576e+02 
9.345640e-01 8.956906e+02 
9.515980e-01 8.771376e+02 
9.688720e-01 8.588557e+02 
9.865640e-01 8.406438e+02 
1.031870e+00 7.964629e+02 
1.063490e+00 7.675469e+02 
1.097920e+00 7.374810e+02 
1.134370e+00 7.074902e+02 
1.167730e+00 6.816110e+02 
1.203830e+00 6.548945e+02 
1.240470e+00 6.293529e+02 
1.275790e+00 6.059303e+02 
1.309140e+00 5.849091e+02 
1.342970e+00 5.646176e+02 
1.378420e+00 5.443863e+02 
1.413200e+00 5.255521e+02 
1.448110e+00 5.075342e+02 
1.484090e+00 4.898506e+02 
1.518820e+00 4.735830e+02 
1.552880e+00 4.584187e+02 
1.588630e+00 4.431830e+02 
1.623230e+00 4.290863e+02 
1.657720e+00 4.156868e+02 
1.692450e+00 4.027943e+02 
1.726400e+00 3.907224e+02 
1.762200e+00 3.785976e+02 
1.797880e+00 3.669727e+02 
1.833270e+00 3.559843e+02 
1.869070e+00 3.453255e+02 
1.903200e+00 3.355724e+02 
1.937740e+00 3.260814e+02 
1.973190e+00 3.167438e+02 
2.007440e+00 3.081143e+02 
2.042160e+00 2.996936e+02 
2.077900e+00 2.913523e+02 
2.112390e+00 2.836030e+02 
2.146220e+00 2.763258e+02 
2.181600e+00 2.689401e+02 
2.216930e+00 2.618644e+02 
2.250760e+00 2.553665e+02 
2.286500e+00 2.487446e+02 
2.321770e+00 2.424176e+02 
2.355950e+00 2.365298e+02 
2.391280e+00 2.306459e+02 
2.426240e+00 2.250206e+02 
2.460670e+00 2.196787e+02 
2.495640e+00 2.144510e+02 
2.531080e+00 2.092889e+02 
2.566220e+00 2.043627e+02 
2.600830e+00 1.996877e+02 
2.635080e+00 1.952247e+02 
2.670340e+00 1.907361e+02 
2.705970e+00 1.863639e+02 
2.740040e+00 1.823231e+02 
2.774520e+00 1.783511e+02 
2.809730e+00 1.744360e+02 
2.844390e+00 1.707056e+02 
2.879960e+00 1.669875e+02 
2.914860e+00 1.634460e+02 
2.949410e+00 1.600425e+02 
2.984440e+00 1.566870e+02 
3.019760e+00 1.534143e+02 
3.054730e+00 1.502754e+02 
3.089030e+00 1.472782e+02 
3.124060e+00 1.443111e+02 
3.159560e+00 1.413989e+02 
3.194710e+00 1.385917e+02 
3.229010e+00 1.359271e+02 
3.263320e+00 1.333286e+02 
3.297930e+00 1.307827e+02 
3.332830e+00 1.282925e+02 
3.368040e+00 1.258453e+02 
3.403300e+00 1.234588e+02 
3.438450e+00 1.211511e+02 
3.473060e+00 1.189409e+02 
3.508440e+00 1.167351e+02 
3.543110e+00 1.146295e+02 
3.577470e+00 1.125920e+02 
3.613040e+00 1.105388e+02 
3.648120e+00 1.085714e+02 
3.682910e+00 1.066680e+02 
3.718050e+00 1.047906e+02 
3.753320e+00 1.029561e+02 
3.787980e+00 1.012017e+02 
3.822290e+00 9.950529e+01 
3.857020e+00 9.782697e+01 
3.891920e+00 9.618292e+01 
3.926650e+00 9.458961e+01 
3.961970e+00 9.300650e+01 
3.997360e+00 9.145529e+01 
4.031670e+00 8.998737e+01 
4.066330e+00 8.854313e+01 
4.101420e+00 8.711446e+01 
4.136200e+00 8.573575e+01 
4.170810e+00 8.439432e+01 
4.206250e+00 8.304898e+01 
4.241580e+00 8.173738e+01 
4.276300e+00 8.047484e+01 
4.310970e+00 7.924034e+01 
4.346120e+00 7.801772e+01 
4.380600e+00 7.684725e+01 
4.414730e+00 7.571302e+01 
4.450350e+00 7.455921e+01 
4.485320e+00 7.345043e+01 
4.519810e+00 7.237789e+01 
4.555430e+00 7.129246e+01 
4.590870e+00 7.023639e+01 
4.625480e+00 6.922886e+01 
4.659910e+00 6.824659e+01 
4.695230e+00 6.726299e+01 
4.729960e+00 6.631572e+01 
4.764450e+00 6.539269e+01 
4.799530e+00 6.447101e+01 
4.834910e+00 6.355977e+01 
4.869700e+00 6.268427e+01 
4.904370e+00 6.182901e+01 
4.939450e+00 6.097970e+01 
4.973940e+00 6.015930e+01 
5.008430e+00 5.935423e+01 
5.043810e+00 5.854606e+01 
5.078840e+00 5.776218e+01 
5.113500e+00 5.700092e+01 
5.148890e+00 5.624108e+01 
5.184210e+00 5.549690e+01 
5.219060e+00 5.477562e+01 
5.253660e+00 5.407128e+01 
5.288570e+00 5.337332e+01 
5.323420e+00 5.269039e+01 
5.358440e+00 5.201787e+01 
5.393590e+00 5.135478e+01 
5.428310e+00 5.071310e+01 
5.462800e+00 5.008759e+01 
5.497640e+00 4.946658e+01 
5.532670e+00 4.885190e+01 
5.567280e+00 4.825462e+01 
5.602000e+00 4.766555e+01 
5.637270e+00 4.707932e+01 
5.672410e+00 4.650561e+01 
5.707020e+00 4.594997e+01 
5.742040e+00 4.539911e+01 
5.777430e+00 4.485210e+01 
5.812210e+00 4.432337e+01 
5.846820e+00 4.380480e+01 
5.881610e+00 4.329170e+01 
5.916510e+00 4.278528e+01 
5.951600e+00 4.228372e+01 
5.986560e+00 4.179177e+01 
6.021830e+00 4.130340e+01 
6.056490e+00 4.083215e+01 
6.091160e+00 4.036902e+01 
6.125830e+00 3.991308e+01 
6.161090e+00 3.945720e+01 
6.195760e+00 3.901716e+01 
6.230420e+00 3.858397e+01 
6.265690e+00 3.814988e+01 
6.300950e+00 3.772199e+01 
6.335620e+00 3.730765e+01 
6.370880e+00 3.689262e+01 
6.405550e+00 3.649177e+01 
6.440220e+00 3.609732e+01 
6.475480e+00 3.570211e+01 
6.510150e+00 3.531909e+01 
6.544810e+00 3.494136e+01 
6.580080e+00 3.456262e+01 
6.614750e+00 3.419576e+01 
6.649410e+00 3.383562e+01 
6.684080e+00 3.348081e+01 
6.719340e+00 3.312515e+01 
6.754010e+00 3.278025e+01 
6.788680e+00 3.243978e+01 
6.823940e+00 3.209843e+01 
6.859800e+00 3.175626e+01 
6.894470e+00 3.142976e+01 
6.929140e+00 3.110766e+01 
6.963800e+00 3.079011e+01 
6.999070e+00 3.047155e+01 
7.033730e+00 3.016409e+01 
7.068400e+00 2.986073e+01 
7.103660e+00 2.955644e+01 
7.138330e+00 2.926117e+01 
7.173600e+00 2.896460e+01 
7.208260e+00 2.867710e+01 
7.243530e+00 2.838847e+01 
7.277600e+00 2.811401e+01 
7.312860e+00 2.783431e+01 
7.348120e+00 2.755834e+01 
7.382790e+00 2.729059e+01 
7.417460e+00 2.702607e+01 
7.452720e+00 2.676045e+01 
7.487390e+00 2.650269e+01 
7.522650e+00 2.624395e+01 
7.557320e+00 2.599260e+01 
7.591990e+00 2.574438e+01 
7.627250e+00 2.549519e+01 
7.662510e+00 2.524922e+01 
7.697180e+00 2.501023e+01 
7.731850e+00 2.477418e+01 
7.766510e+00 2.454115e+01 
7.801180e+00 2.431098e+01 
7.836440e+00 2.408052e+01 
7.871110e+00 2.385718e+01 
7.906380e+00 2.363280e+01 
7.941040e+00 2.341504e+01 
7.976310e+00 2.319547e+01 
8.011570e+00 2.297785e+01 
8.046240e+00 2.276650e+01 
8.080900e+00 2.255779e+01 
8.115570e+00 2.235175e+01 
8.150830e+00 2.214558e+01 
8.185500e+00 2.194531e+01 
8.220770e+00 2.174403e+01 
8.255430e+00 2.154862e+01 
8.290100e+00 2.135630e+01 
8.324770e+00 2.116635e+01 
8.359430e+00 2.097868e+01 
8.394700e+00 2.078998e+01 
8.429960e+00 2.060297e+01 
8.464630e+00 2.042064e+01 
8.499890e+00 2.023739e+01 
8.534560e+00 2.005932e+01 
8.569200e+00 1.988345e+01 
