# Parameters:
# omega_b = 0.022270, omega_m = 0.155000, n_s = 0.968100, h = 67.900000, w = -1.000000, sigma_8 = 0.815400
# z = 0.000000
#
# k[1/Mpc] # P(k):
8.694000e-04 1.179032e+04 
2.077466e-03 2.550947e+04 
3.285532e-03 3.652954e+04 
4.493598e-03 4.527401e+04 
5.701664e-03 5.202145e+04 
6.909730e-03 5.705034e+04 
8.117797e-03 6.070268e+04 
9.325863e-03 6.315269e+04 
1.053393e-02 6.458276e+04 
1.174199e-02 6.516611e+04 
1.295006e-02 6.501136e+04 
1.415813e-02 6.427265e+04 
1.536619e-02 6.308124e+04 
1.657426e-02 6.158150e+04 
1.778233e-02 6.003953e+04 
1.899039e-02 5.847429e+04 
2.019846e-02 5.656749e+04 
2.140652e-02 5.438420e+04 
2.261459e-02 5.213608e+04 
2.382266e-02 4.994086e+04 
2.503072e-02 4.784463e+04 
2.623879e-02 4.586717e+04 
2.744685e-02 4.401483e+04 
2.865492e-02 4.230178e+04 
2.986299e-02 4.072792e+04 
3.100100e-02 3.937348e+04 
3.220400e-02 3.806978e+04 
3.288100e-02 3.739237e+04 
3.424300e-02 3.614390e+04 
3.555100e-02 3.508090e+04 
3.686000e-02 3.412453e+04 
3.795000e-02 3.340299e+04 
3.929100e-02 3.259915e+04 
4.039800e-02 3.198778e+04 
4.164000e-02 3.133772e+04 
4.294400e-02 3.068417e+04 
4.415000e-02 3.010375e+04 
4.542900e-02 2.948347e+04 
4.660900e-02 2.890918e+04 
4.782300e-02 2.829660e+04 
4.892900e-02 2.772488e+04 
5.031200e-02 2.698478e+04 
5.155900e-02 2.629129e+04 
5.238100e-02 2.582318e+04 
5.378200e-02 2.501104e+04 
5.513400e-02 2.420609e+04 
5.627600e-02 2.352188e+04 
5.735300e-02 2.287985e+04 
5.870100e-02 2.208100e+04 
5.988700e-02 2.139462e+04 
6.113500e-02 2.069426e+04 
6.225900e-02 2.008571e+04 
6.340100e-02 1.949199e+04 
6.480200e-02 1.880556e+04 
6.601100e-02 1.825237e+04 
6.725500e-02 1.772225e+04 
6.829100e-02 1.731560e+04 
6.958600e-02 1.684317e+04 
7.071100e-02 1.646677e+04 
7.192300e-02 1.609403e+04 
7.307400e-02 1.577020e+04 
7.412300e-02 1.549864e+04 
7.550400e-02 1.517429e+04 
7.663100e-02 1.493073e+04 
7.791200e-02 1.467658e+04 
7.912700e-02 1.445473e+04 
8.027600e-02 1.425544e+04 
8.138400e-02 1.407130e+04 
8.272200e-02 1.385740e+04 
8.406100e-02 1.364877e+04 
8.534100e-02 1.345070e+04 
8.653800e-02 1.326262e+04 
8.759800e-02 1.309541e+04 
8.900300e-02 1.287082e+04 
9.009000e-02 1.269151e+04 
9.113300e-02 1.251574e+04 
9.239600e-02 1.230074e+04 
9.358000e-02 1.209362e+04 
9.496100e-02 1.184877e+04 
9.608400e-02 1.164874e+04 
9.727500e-02 1.143681e+04 
9.852600e-02 1.121094e+04 
9.973800e-02 1.099608e+04 
1.009000e-01 1.079390e+04 
1.020900e-01 1.058833e+04 
1.034000e-01 1.036962e+04 
1.046000e-01 1.017638e+04 
1.057200e-01 1.000301e+04 
1.069100e-01 9.825408e+03 
1.082500e-01 9.637444e+03 
1.093900e-01 9.484821e+03 
1.105400e-01 9.336433e+03 
1.116900e-01 9.199152e+03 
1.129600e-01 9.054011e+03 
1.142000e-01 8.922256e+03 
1.153300e-01 8.807968e+03 
1.166400e-01 8.683126e+03 
1.177800e-01 8.579505e+03 
1.190000e-01 8.472357e+03 
1.201200e-01 8.379636e+03 
1.213400e-01 8.281612e+03 
1.227100e-01 8.175308e+03 
1.238900e-01 8.086075e+03 
1.250700e-01 7.998895e+03 
1.263200e-01 7.908070e+03 
1.275500e-01 7.819376e+03 
1.287500e-01 7.734203e+03 
1.299900e-01 7.647193e+03 
1.311300e-01 7.567322e+03 
1.323500e-01 7.481216e+03 
1.335900e-01 7.394616e+03 
1.347100e-01 7.316681e+03 
1.359800e-01 7.229111e+03 
1.372100e-01 7.143985e+03 
1.384300e-01 7.060533e+03 
1.395700e-01 6.982138e+03 
1.407700e-01 6.901075e+03 
1.420300e-01 6.815434e+03 
1.432800e-01 6.732307e+03 
1.444500e-01 6.655781e+03 
1.456300e-01 6.580138e+03 
1.468900e-01 6.500409e+03 
1.480500e-01 6.428307e+03 
1.491700e-01 6.360381e+03 
1.503800e-01 6.288877e+03 
1.516400e-01 6.216247e+03 
1.528200e-01 6.151021e+03 
1.540200e-01 6.085949e+03 
1.551900e-01 6.025337e+03 
1.564300e-01 5.962710e+03 
1.576600e-01 5.902312e+03 
1.588700e-01 5.844653e+03 
1.600900e-01 5.787693e+03 
1.612700e-01 5.735376e+03 
1.625400e-01 5.680106e+03 
1.637600e-01 5.628177e+03 
1.649500e-01 5.578534e+03 
1.662200e-01 5.526581e+03 
1.674000e-01 5.479560e+03 
1.685000e-01 5.436451e+03 
1.697500e-01 5.388187e+03 
1.710300e-01 5.339551e+03 
1.722200e-01 5.295127e+03 
1.734400e-01 5.249728e+03 
1.746400e-01 5.205803e+03 
1.758700e-01 5.161267e+03 
1.770900e-01 5.117282e+03 
1.782700e-01 5.075439e+03 
1.794600e-01 5.033394e+03 
1.807000e-01 4.989946e+03 
1.819100e-01 4.948248e+03 
1.830100e-01 4.910753e+03 
1.842200e-01 4.870112e+03 
1.855000e-01 4.827830e+03 
1.867000e-01 4.788919e+03 
1.879200e-01 4.749983e+03 
1.890900e-01 4.713164e+03 
1.902800e-01 4.675987e+03 
1.915200e-01 4.637850e+03 
1.926900e-01 4.602497e+03 
1.939000e-01 4.566749e+03 
1.951700e-01 4.529811e+03 
1.963100e-01 4.497249e+03 
1.975100e-01 4.463727e+03 
1.987800e-01 4.428790e+03 
2.000100e-01 4.395495e+03 
2.012500e-01 4.362494e+03 
2.023400e-01 4.333893e+03 
2.036100e-01 4.301071e+03 
2.048900e-01 4.268607e+03 
2.060400e-01 4.239861e+03 
2.072200e-01 4.210786e+03 
2.084200e-01 4.181808e+03 
2.096900e-01 4.151583e+03 
2.109200e-01 4.122734e+03 
2.121100e-01 4.095132e+03 
2.132700e-01 4.068585e+03 
2.145200e-01 4.040372e+03 
2.157200e-01 4.013637e+03 
2.168800e-01 3.988126e+03 
2.180700e-01 3.962300e+03 
2.193400e-01 3.935079e+03 
2.206000e-01 3.908383e+03 
2.217500e-01 3.884342e+03 
2.229500e-01 3.859579e+03 
2.241400e-01 3.835260e+03 
2.253500e-01 3.810853e+03 
2.264900e-01 3.788150e+03 
2.277100e-01 3.764309e+03 
2.289900e-01 3.739792e+03 
2.301500e-01 3.717863e+03 
2.313600e-01 3.695273e+03 
2.325600e-01 3.672945e+03 
2.337700e-01 3.650715e+03 
2.350000e-01 3.628404e+03 
2.362000e-01 3.607007e+03 
2.374100e-01 3.585811e+03 
2.386500e-01 3.564364e+03 
2.399100e-01 3.542849e+03 
2.410400e-01 3.523563e+03 
2.422500e-01 3.503129e+03 
2.435000e-01 3.482280e+03 
2.447300e-01 3.462098e+03 
2.458700e-01 3.443932e+03 
2.470600e-01 3.425189e+03 
2.483300e-01 3.405429e+03 
2.495600e-01 3.386457e+03 
2.507600e-01 3.368074e+03 
2.519600e-01 3.349906e+03 
2.532200e-01 3.331057e+03 
2.543700e-01 3.314104e+03 
2.555500e-01 3.296939e+03 
2.568000e-01 3.278967e+03 
2.580100e-01 3.261774e+03 
2.592400e-01 3.244600e+03 
2.604100e-01 3.228494e+03 
2.616100e-01 3.212158e+03 
2.628400e-01 3.195605e+03 
2.640600e-01 3.179492e+03 
2.652200e-01 3.164389e+03 
2.664300e-01 3.148807e+03 
2.676500e-01 3.133272e+03 
2.688400e-01 3.118178e+03 
2.700700e-01 3.102682e+03 
2.712400e-01 3.088102e+03 
2.724800e-01 3.072818e+03 
2.736700e-01 3.058387e+03 
2.748800e-01 3.043950e+03 
2.761000e-01 3.029552e+03 
2.773200e-01 3.015310e+03 
2.785400e-01 3.001163e+03 
2.797000e-01 2.987729e+03 
2.808900e-01 2.974090e+03 
2.821400e-01 2.959916e+03 
2.833900e-01 2.945895e+03 
2.845500e-01 2.932987e+03 
2.857800e-01 2.919441e+03 
2.870300e-01 2.905821e+03 
2.882100e-01 2.893098e+03 
2.893900e-01 2.880374e+03 
2.906300e-01 2.867072e+03 
2.918900e-01 2.853697e+03 
2.930500e-01 2.841510e+03 
2.942500e-01 2.829041e+03 
2.954200e-01 2.817051e+03 
2.966500e-01 2.804572e+03 
2.978900e-01 2.792121e+03 
2.990400e-01 2.780687e+03 
3.002700e-01 2.768422e+03 
3.015100e-01 2.756105e+03 
3.026800e-01 2.744599e+03 
3.038500e-01 2.733201e+03 
3.050300e-01 2.721816e+03 
3.062600e-01 2.710130e+03 
3.075000e-01 2.698465e+03 
3.087000e-01 2.687287e+03 
3.099100e-01 2.676123e+03 
3.111200e-01 2.665032e+03 
3.123100e-01 2.654165e+03 
3.135300e-01 2.643130e+03 
3.147300e-01 2.632380e+03 
3.159900e-01 2.621200e+03 
3.171800e-01 2.610692e+03 
3.183700e-01 2.600248e+03 
3.196300e-01 2.589294e+03 
3.208400e-01 2.578875e+03 
3.220300e-01 2.568723e+03 
3.232000e-01 2.558856e+03 
3.244300e-01 2.548589e+03 
3.256700e-01 2.538335e+03 
3.269200e-01 2.528095e+03 
3.280800e-01 2.518680e+03 
3.292500e-01 2.509284e+03 
3.304800e-01 2.499501e+03 
3.317100e-01 2.489808e+03 
3.328900e-01 2.480592e+03 
3.340700e-01 2.471457e+03 
3.353600e-01 2.461584e+03 
3.365300e-01 2.452719e+03 
3.377100e-01 2.443856e+03 
3.389200e-01 2.434846e+03 
3.401600e-01 2.425697e+03 
3.413700e-01 2.416857e+03 
3.425300e-01 2.408461e+03 
3.437700e-01 2.399565e+03 
3.449800e-01 2.390961e+03 
3.461800e-01 2.382501e+03 
3.473600e-01 2.374261e+03 
3.485800e-01 2.365834e+03 
3.498100e-01 2.357412e+03 
3.510200e-01 2.349198e+03 
3.522000e-01 2.341256e+03 
3.533900e-01 2.333313e+03 
3.546400e-01 2.325142e+03 
3.558400e-01 2.317371e+03 
3.570600e-01 2.309538e+03 
3.582700e-01 2.301835e+03 
3.595000e-01 2.294070e+03 
3.607100e-01 2.286457e+03 
3.618900e-01 2.279063e+03 
3.631200e-01 2.271419e+03 
3.643200e-01 2.264023e+03 
3.655500e-01 2.256506e+03 
3.667300e-01 2.249354e+03 
3.679500e-01 2.242018e+03 
3.691900e-01 2.234623e+03 
3.703600e-01 2.227703e+03 
3.715700e-01 2.220604e+03 
3.727700e-01 2.213621e+03 
3.739900e-01 2.206589e+03 
3.752000e-01 2.199690e+03 
3.763900e-01 2.192960e+03 
3.775800e-01 2.186284e+03 
3.788200e-01 2.179382e+03 
3.800300e-01 2.172703e+03 
3.812100e-01 2.166237e+03 
3.824200e-01 2.159655e+03 
3.836100e-01 2.153234e+03 
3.848600e-01 2.146543e+03 
3.860400e-01 2.140276e+03 
3.872400e-01 2.133953e+03 
3.884600e-01 2.127587e+03 
3.896500e-01 2.121430e+03 
3.908700e-01 2.115167e+03 
3.920600e-01 2.109106e+03 
3.933100e-01 2.102789e+03 
3.945300e-01 2.096673e+03 
3.957200e-01 2.090694e+03 
3.969300e-01 2.084644e+03 
3.981700e-01 2.078493e+03 
3.993500e-01 2.072684e+03 
4.094840e-01 2.024574e+03 
4.272360e-01 1.946097e+03 
4.454600e-01 1.871917e+03 
4.630560e-01 1.805822e+03 
4.804610e-01 1.744487e+03 
4.980690e-01 1.686943e+03 
5.159230e-01 1.631954e+03 
5.317440e-01 1.586360e+03 
5.489640e-01 1.539277e+03 
5.671990e-01 1.492276e+03 
5.838690e-01 1.451776e+03 
6.018840e-01 1.410399e+03 
6.202330e-01 1.370111e+03 
6.379250e-01 1.333600e+03 
6.545410e-01 1.300679e+03 
6.714560e-01 1.268688e+03 
6.892080e-01 1.236457e+03 
7.066010e-01 1.206384e+03 
7.240540e-01 1.177349e+03 
7.420450e-01 1.148380e+03 
7.593780e-01 1.121767e+03 
7.764720e-01 1.096239e+03 
7.942840e-01 1.070593e+03 
8.116170e-01 1.046614e+03 
8.288310e-01 1.023463e+03 
8.462240e-01 1.000898e+03 
8.631980e-01 9.794635e+02 
8.810700e-01 9.576239e+02 
8.989410e-01 9.364916e+02 
9.166330e-01 9.162751e+02 
9.345640e-01 8.962656e+02 
9.515980e-01 8.778503e+02 
9.688720e-01 8.596997e+02 
9.865640e-01 8.416055e+02 
1.031870e+00 7.976861e+02 
1.063490e+00 7.689151e+02 
1.097920e+00 7.389773e+02 
1.134370e+00 7.091000e+02 
1.167730e+00 6.833046e+02 
1.203830e+00 6.566552e+02 
1.240470e+00 6.311698e+02 
1.275790e+00 6.077873e+02 
1.309140e+00 5.867924e+02 
1.342970e+00 5.665195e+02 
1.378420e+00 5.463015e+02 
1.413200e+00 5.274735e+02 
1.448110e+00 5.094548e+02 
1.484090e+00 4.917679e+02 
1.518820e+00 4.754926e+02 
1.552880e+00 4.603187e+02 
1.588630e+00 4.450683e+02 
1.623230e+00 4.309568e+02 
1.657720e+00 4.175405e+02 
1.692450e+00 4.046300e+02 
1.726400e+00 3.925381e+02 
1.762200e+00 3.803919e+02 
1.797880e+00 3.687444e+02 
1.833270e+00 3.577343e+02 
1.869070e+00 3.470534e+02 
1.903200e+00 3.372779e+02 
1.937740e+00 3.277641e+02 
1.973190e+00 3.184035e+02 
2.007440e+00 3.097519e+02 
2.042160e+00 3.013083e+02 
2.077900e+00 2.929440e+02 
2.112390e+00 2.851726e+02 
2.146220e+00 2.778737e+02 
2.181600e+00 2.704659e+02 
2.216930e+00 2.633682e+02 
2.250760e+00 2.568496e+02 
2.286500e+00 2.502062e+02 
2.321770e+00 2.438580e+02 
2.355950e+00 2.379502e+02 
2.391280e+00 2.320463e+02 
2.426240e+00 2.264009e+02 
2.460670e+00 2.210397e+02 
2.495640e+00 2.157933e+02 
2.531080e+00 2.106120e+02 
2.566220e+00 2.056670e+02 
2.600830e+00 2.009740e+02 
2.635080e+00 1.964939e+02 
2.670340e+00 1.919876e+02 
2.705970e+00 1.875980e+02 
2.740040e+00 1.835410e+02 
2.774520e+00 1.795528e+02 
2.809730e+00 1.756218e+02 
2.844390e+00 1.718759e+02 
2.879960e+00 1.681422e+02 
2.914860e+00 1.645854e+02 
2.949410e+00 1.611671e+02 
2.984440e+00 1.577972e+02 
3.019760e+00 1.545102e+02 
3.054730e+00 1.513575e+02 
3.089030e+00 1.483469e+02 
3.124060e+00 1.453663e+02 
3.159560e+00 1.424410e+02 
3.194710e+00 1.396209e+02 
3.229010e+00 1.369440e+02 
3.263320e+00 1.343333e+02 
3.297930e+00 1.317754e+02 
3.332830e+00 1.292735e+02 
3.368040e+00 1.268147e+02 
3.403300e+00 1.244166e+02 
3.438450e+00 1.220978e+02 
3.473060e+00 1.198767e+02 
3.508440e+00 1.176603e+02 
3.543110e+00 1.155443e+02 
3.577470e+00 1.134965e+02 
3.613040e+00 1.114330e+02 
3.648120e+00 1.094557e+02 
3.682910e+00 1.075426e+02 
3.718050e+00 1.056556e+02 
3.753320e+00 1.038117e+02 
3.787980e+00 1.020482e+02 
3.822290e+00 1.003430e+02 
3.857020e+00 9.865578e+01 
3.891920e+00 9.700303e+01 
3.926650e+00 9.540126e+01 
3.961970e+00 9.380967e+01 
3.997360e+00 9.225010e+01 
4.031670e+00 9.077420e+01 
4.066330e+00 8.932204e+01 
4.101420e+00 8.788548e+01 
4.136200e+00 8.649923e+01 
4.170810e+00 8.515044e+01 
4.206250e+00 8.379757e+01 
4.241580e+00 8.247857e+01 
4.276300e+00 8.120883e+01 
4.310970e+00 7.996722e+01 
4.346120e+00 7.873754e+01 
4.380600e+00 7.756032e+01 
4.414730e+00 7.641951e+01 
4.450350e+00 7.525898e+01 
4.485320e+00 7.414370e+01 
4.519810e+00 7.306477e+01 
4.555430e+00 7.197282e+01 
4.590870e+00 7.091037e+01 
4.625480e+00 6.989675e+01 
4.659910e+00 6.890852e+01 
4.695230e+00 6.791891e+01 
4.729960e+00 6.696581e+01 
4.764450e+00 6.603709e+01 
4.799530e+00 6.510971e+01 
4.834910e+00 6.419280e+01 
4.869700e+00 6.331174e+01 
4.904370e+00 6.245099e+01 
4.939450e+00 6.159622e+01 
4.973940e+00 6.077055e+01 
5.008430e+00 5.996027e+01 
5.043810e+00 5.914682e+01 
5.078840e+00 5.835779e+01 
5.113500e+00 5.759150e+01 
5.148890e+00 5.682661e+01 
5.184210e+00 5.607746e+01 
5.219060e+00 5.535134e+01 
5.253660e+00 5.464222e+01 
5.288570e+00 5.393951e+01 
5.323420e+00 5.325189e+01 
5.358440e+00 5.257470e+01 
5.393590e+00 5.190700e+01 
5.428310e+00 5.126082e+01 
5.462800e+00 5.063092e+01 
5.497640e+00 5.000551e+01 
5.532670e+00 4.938642e+01 
5.567280e+00 4.878481e+01 
5.602000e+00 4.819146e+01 
5.637270e+00 4.760095e+01 
5.672410e+00 4.702303e+01 
5.707020e+00 4.646329e+01 
5.742040e+00 4.590834e+01 
5.777430e+00 4.535725e+01 
5.812210e+00 4.482456e+01 
5.846820e+00 4.430205e+01 
5.881610e+00 4.378501e+01 
5.916510e+00 4.327469e+01 
5.951600e+00 4.276922e+01 
5.986560e+00 4.227341e+01 
6.021830e+00 4.178120e+01 
6.056490e+00 4.130622e+01 
6.091160e+00 4.083940e+01 
6.125830e+00 4.037982e+01 
6.161090e+00 3.992028e+01 
6.195760e+00 3.947668e+01 
6.230420e+00 3.903998e+01 
6.265690e+00 3.860236e+01 
6.300950e+00 3.817091e+01 
6.335620e+00 3.775312e+01 
6.370880e+00 3.733463e+01 
6.405550e+00 3.693039e+01 
6.440220e+00 3.653257e+01 
6.475480e+00 3.613398e+01 
6.510150e+00 3.574767e+01 
6.544810e+00 3.536667e+01 
6.580080e+00 3.498465e+01 
6.614750e+00 3.461460e+01 
6.649410e+00 3.425130e+01 
6.684080e+00 3.389334e+01 
6.719340e+00 3.353451e+01 
6.754010e+00 3.318653e+01 
6.788680e+00 3.284296e+01 
6.823940e+00 3.249850e+01 
6.859800e+00 3.215320e+01 
6.894470e+00 3.182369e+01 
6.929140e+00 3.149860e+01 
6.963800e+00 3.117809e+01 
6.999070e+00 3.085655e+01 
7.033730e+00 3.054618e+01 
7.068400e+00 3.023995e+01 
7.103660e+00 2.993276e+01 
7.138330e+00 2.963467e+01 
7.173600e+00 2.933523e+01 
7.208260e+00 2.904494e+01 
7.243530e+00 2.875352e+01 
7.277600e+00 2.847637e+01 
7.312860e+00 2.819390e+01 
7.348120e+00 2.791520e+01 
7.382790e+00 2.764478e+01 
7.417460e+00 2.737761e+01 
7.452720e+00 2.710932e+01 
7.487390e+00 2.684896e+01 
7.522650e+00 2.658760e+01 
7.557320e+00 2.633367e+01 
7.591990e+00 2.608289e+01 
7.627250e+00 2.583111e+01 
7.662510e+00 2.558259e+01 
7.697180e+00 2.534110e+01 
7.731850e+00 2.510255e+01 
7.766510e+00 2.486707e+01 
7.801180e+00 2.463446e+01 
7.836440e+00 2.440155e+01 
7.871110e+00 2.417580e+01 
7.906380e+00 2.394901e+01 
7.941040e+00 2.372891e+01 
7.976310e+00 2.350695e+01 
8.011570e+00 2.328692e+01 
8.046240e+00 2.307323e+01 
8.080900e+00 2.286220e+01 
8.115570e+00 2.265389e+01 
8.150830e+00 2.244541e+01 
8.185500e+00 2.224291e+01 
8.220770e+00 2.203938e+01 
8.255430e+00 2.184178e+01 
8.290100e+00 2.164727e+01 
8.324770e+00 2.145515e+01 
8.359430e+00 2.126534e+01 
8.394700e+00 2.107447e+01 
8.429960e+00 2.088530e+01 
8.464630e+00 2.070085e+01 
8.499890e+00 2.051546e+01 
8.534560e+00 2.033530e+01 
8.569200e+00 2.015738e+01 
