# Parameters:
# omega_b = 0.022270, omega_m = 0.130000, n_s = 0.968100, h = 67.900000, w = -1.000000, sigma_8 = 0.815400
# z = 0.000000
#
# k[1/Mpc] # P(k):
8.694000e-04 1.984700e+04 
2.077466e-03 4.219546e+04 
3.285532e-03 5.932240e+04 
4.493598e-03 7.216110e+04 
5.701664e-03 8.140271e+04 
6.909730e-03 8.768075e+04 
8.117797e-03 9.167846e+04 
9.325863e-03 9.374824e+04 
1.053393e-02 9.423599e+04 
1.174199e-02 9.345823e+04 
1.295006e-02 9.161710e+04 
1.415813e-02 8.898415e+04 
1.536619e-02 8.578480e+04 
1.657426e-02 8.212323e+04 
1.778233e-02 7.796721e+04 
1.899039e-02 7.362433e+04 
2.019846e-02 6.955304e+04 
2.140652e-02 6.582882e+04 
2.261459e-02 6.233899e+04 
2.382266e-02 5.907595e+04 
2.503072e-02 5.606198e+04 
2.623879e-02 5.330711e+04 
2.744685e-02 5.081301e+04 
2.865492e-02 4.857258e+04 
2.986299e-02 4.656947e+04 
3.100100e-02 4.489162e+04 
3.220400e-02 4.331311e+04 
3.288100e-02 4.250755e+04 
3.424300e-02 4.104119e+04 
3.555100e-02 3.980453e+04 
3.686000e-02 3.869448e+04 
3.795000e-02 3.785188e+04 
3.929100e-02 3.689654e+04 
4.039800e-02 3.615191e+04 
4.164000e-02 3.534182e+04 
4.294400e-02 3.449620e+04 
4.415000e-02 3.372701e+04 
4.542900e-02 3.288457e+04 
4.660900e-02 3.209686e+04 
4.782300e-02 3.125040e+04 
4.892900e-02 3.046409e+04 
5.031200e-02 2.945589e+04 
5.155900e-02 2.852659e+04 
5.238100e-02 2.790912e+04 
5.378200e-02 2.685655e+04 
5.513400e-02 2.584091e+04 
5.627600e-02 2.499812e+04 
5.735300e-02 2.422357e+04 
5.870100e-02 2.328222e+04 
5.988700e-02 2.249121e+04 
6.113500e-02 2.170096e+04 
6.225900e-02 2.102879e+04 
6.340100e-02 2.038546e+04 
6.480200e-02 1.965435e+04 
6.601100e-02 1.907754e+04 
6.725500e-02 1.853403e+04 
6.829100e-02 1.812425e+04 
6.958600e-02 1.765344e+04 
7.071100e-02 1.728313e+04 
7.192300e-02 1.691973e+04 
7.307400e-02 1.660613e+04 
7.412300e-02 1.634398e+04 
7.550400e-02 1.603059e+04 
7.663100e-02 1.579392e+04 
7.791200e-02 1.554274e+04 
7.912700e-02 1.531769e+04 
8.027600e-02 1.510978e+04 
8.138400e-02 1.491218e+04 
8.272200e-02 1.467444e+04 
8.406100e-02 1.443374e+04 
8.534100e-02 1.419556e+04 
8.653800e-02 1.396285e+04 
8.759800e-02 1.375263e+04 
8.900300e-02 1.346625e+04 
9.009000e-02 1.323609e+04 
9.113300e-02 1.301048e+04 
9.239600e-02 1.273571e+04 
9.358000e-02 1.247395e+04 
9.496100e-02 1.217002e+04 
9.608400e-02 1.192633e+04 
9.727500e-02 1.167211e+04 
9.852600e-02 1.141170e+04 
9.973800e-02 1.116914e+04 
1.009000e-01 1.094511e+04 
1.020900e-01 1.072772e+04 
1.034000e-01 1.050088e+04 
1.046000e-01 1.030504e+04 
1.057200e-01 1.013602e+04 
1.069100e-01 9.964957e+03 
1.082500e-01 9.789438e+03 
1.093900e-01 9.649194e+03 
1.105400e-01 9.514166e+03 
1.116900e-01 9.391080e+03 
1.129600e-01 9.261198e+03 
1.142000e-01 9.143108e+03 
1.153300e-01 9.039815e+03 
1.166400e-01 8.925640e+03 
1.177800e-01 8.828179e+03 
1.190000e-01 8.726118e+03 
1.201200e-01 8.633577e+03 
1.213400e-01 8.534961e+03 
1.227100e-01 8.421395e+03 
1.238900e-01 8.324776e+03 
1.250700e-01 8.226273e+03 
1.263200e-01 8.122387e+03 
1.275500e-01 8.018163e+03 
1.287500e-01 7.917190e+03 
1.299900e-01 7.812656e+03 
1.311300e-01 7.716813e+03 
1.323500e-01 7.613663e+03 
1.335900e-01 7.510708e+03 
1.347100e-01 7.419069e+03 
1.359800e-01 7.317238e+03 
1.372100e-01 7.220472e+03 
1.384300e-01 7.126749e+03 
1.395700e-01 7.041353e+03 
1.407700e-01 6.953426e+03 
1.420300e-01 6.864194e+03 
1.432800e-01 6.777591e+03 
1.444500e-01 6.700996e+03 
1.456300e-01 6.625283e+03 
1.468900e-01 6.547148e+03 
1.480500e-01 6.476976e+03 
1.491700e-01 6.411339e+03 
1.503800e-01 6.342854e+03 
1.516400e-01 6.273292e+03 
1.528200e-01 6.210869e+03 
1.540200e-01 6.148589e+03 
1.551900e-01 6.090037e+03 
1.564300e-01 6.029404e+03 
1.576600e-01 5.970373e+03 
1.588700e-01 5.913346e+03 
1.600900e-01 5.856937e+03 
1.612700e-01 5.803778e+03 
1.625400e-01 5.747620e+03 
1.637600e-01 5.694053e+03 
1.649500e-01 5.642373e+03 
1.662200e-01 5.588133e+03 
1.674000e-01 5.538167e+03 
1.685000e-01 5.492361e+03 
1.697500e-01 5.440781e+03 
1.710300e-01 5.388511e+03 
1.722200e-01 5.340769e+03 
1.734400e-01 5.291826e+03 
1.746400e-01 5.244467e+03 
1.758700e-01 5.196518e+03 
1.770900e-01 5.149301e+03 
1.782700e-01 5.104387e+03 
1.794600e-01 5.059531e+03 
1.807000e-01 5.013364e+03 
1.819100e-01 4.969059e+03 
1.830100e-01 4.929663e+03 
1.842200e-01 4.887038e+03 
1.855000e-01 4.842717e+03 
1.867000e-01 4.802476e+03 
1.879200e-01 4.762210e+03 
1.890900e-01 4.724217e+03 
1.902800e-01 4.686291e+03 
1.915200e-01 4.647386e+03 
1.926900e-01 4.611413e+03 
1.939000e-01 4.575337e+03 
1.951700e-01 4.538062e+03 
1.963100e-01 4.505266e+03 
1.975100e-01 4.471677e+03 
1.987800e-01 4.436669e+03 
2.000100e-01 4.403338e+03 
2.012500e-01 4.370371e+03 
2.023400e-01 4.341800e+03 
2.036100e-01 4.309006e+03 
2.048900e-01 4.276548e+03 
2.060400e-01 4.247806e+03 
2.072200e-01 4.218727e+03 
2.084200e-01 4.189637e+03 
2.096900e-01 4.159294e+03 
2.109200e-01 4.130333e+03 
2.121100e-01 4.102501e+03 
2.132700e-01 4.075726e+03 
2.145200e-01 4.047270e+03 
2.157200e-01 4.020252e+03 
2.168800e-01 3.994446e+03 
2.180700e-01 3.968322e+03 
2.193400e-01 3.940796e+03 
2.206000e-01 3.913819e+03 
2.217500e-01 3.889524e+03 
2.229500e-01 3.864500e+03 
2.241400e-01 3.840089e+03 
2.253500e-01 3.815592e+03 
2.264900e-01 3.792806e+03 
2.277100e-01 3.769049e+03 
2.289900e-01 3.744810e+03 
2.301500e-01 3.723130e+03 
2.313600e-01 3.700801e+03 
2.325600e-01 3.679204e+03 
2.337700e-01 3.657702e+03 
2.350000e-01 3.636123e+03 
2.362000e-01 3.615684e+03 
2.374100e-01 3.595742e+03 
2.386500e-01 3.575564e+03 
2.399100e-01 3.555324e+03 
2.410400e-01 3.537606e+03 
2.422500e-01 3.518886e+03 
2.435000e-01 3.499789e+03 
2.447300e-01 3.481388e+03 
2.458700e-01 3.465161e+03 
2.470600e-01 3.448421e+03 
2.483300e-01 3.430776e+03 
2.495600e-01 3.413907e+03 
2.507600e-01 3.397656e+03 
2.519600e-01 3.381598e+03 
2.532200e-01 3.364942e+03 
2.543700e-01 3.349933e+03 
2.555500e-01 3.334717e+03 
2.568000e-01 3.318789e+03 
2.580100e-01 3.303555e+03 
2.592400e-01 3.288174e+03 
2.604100e-01 3.273679e+03 
2.616100e-01 3.258980e+03 
2.628400e-01 3.244089e+03 
2.640600e-01 3.229329e+03 
2.652200e-01 3.215388e+03 
2.664300e-01 3.201009e+03 
2.676500e-01 3.186675e+03 
2.688400e-01 3.172477e+03 
2.700700e-01 3.157731e+03 
2.712400e-01 3.143859e+03 
2.724800e-01 3.129319e+03 
2.736700e-01 3.115411e+03 
2.748800e-01 3.101311e+03 
2.761000e-01 3.087249e+03 
2.773200e-01 3.073342e+03 
2.785400e-01 3.059430e+03 
2.797000e-01 3.046018e+03 
2.808900e-01 3.032401e+03 
2.821400e-01 3.018250e+03 
2.833900e-01 3.004244e+03 
2.845500e-01 2.991162e+03 
2.857800e-01 2.977434e+03 
2.870300e-01 2.963632e+03 
2.882100e-01 2.950738e+03 
2.893900e-01 2.937761e+03 
2.906300e-01 2.924149e+03 
2.918900e-01 2.910463e+03 
2.930500e-01 2.897992e+03 
2.942500e-01 2.885219e+03 
2.954200e-01 2.872888e+03 
2.966500e-01 2.860054e+03 
2.978900e-01 2.847247e+03 
2.990400e-01 2.835488e+03 
3.002700e-01 2.822847e+03 
3.015100e-01 2.810143e+03 
3.026800e-01 2.798274e+03 
3.038500e-01 2.786517e+03 
3.050300e-01 2.774773e+03 
3.062600e-01 2.762716e+03 
3.075000e-01 2.750681e+03 
3.087000e-01 2.739148e+03 
3.099100e-01 2.727630e+03 
3.111200e-01 2.716185e+03 
3.123100e-01 2.704970e+03 
3.135300e-01 2.693581e+03 
3.147300e-01 2.682485e+03 
3.159900e-01 2.670945e+03 
3.171800e-01 2.660104e+03 
3.183700e-01 2.649331e+03 
3.196300e-01 2.638033e+03 
3.208400e-01 2.627286e+03 
3.220300e-01 2.616813e+03 
3.232000e-01 2.606643e+03 
3.244300e-01 2.596062e+03 
3.256700e-01 2.585494e+03 
3.269200e-01 2.574942e+03 
3.280800e-01 2.565238e+03 
3.292500e-01 2.555551e+03 
3.304800e-01 2.545463e+03 
3.317100e-01 2.535468e+03 
3.328900e-01 2.525964e+03 
3.340700e-01 2.516544e+03 
3.353600e-01 2.506365e+03 
3.365300e-01 2.497227e+03 
3.377100e-01 2.488090e+03 
3.389200e-01 2.478803e+03 
3.401600e-01 2.469371e+03 
3.413700e-01 2.460259e+03 
3.425300e-01 2.451608e+03 
3.437700e-01 2.442439e+03 
3.449800e-01 2.433572e+03 
3.461800e-01 2.424853e+03 
3.473600e-01 2.416359e+03 
3.485800e-01 2.407669e+03 
3.498100e-01 2.398983e+03 
3.510200e-01 2.390513e+03 
3.522000e-01 2.382322e+03 
3.533900e-01 2.374131e+03 
3.546400e-01 2.365694e+03 
3.558400e-01 2.357670e+03 
3.570600e-01 2.349581e+03 
3.582700e-01 2.341626e+03 
3.595000e-01 2.333608e+03 
3.607100e-01 2.325744e+03 
3.618900e-01 2.318105e+03 
3.631200e-01 2.310207e+03 
3.643200e-01 2.302567e+03 
3.655500e-01 2.294800e+03 
3.667300e-01 2.287411e+03 
3.679500e-01 2.279823e+03 
3.691900e-01 2.272176e+03 
3.703600e-01 2.265019e+03 
3.715700e-01 2.257676e+03 
3.727700e-01 2.250454e+03 
3.739900e-01 2.243181e+03 
3.752000e-01 2.236046e+03 
3.763900e-01 2.229086e+03 
3.775800e-01 2.222180e+03 
3.788200e-01 2.215042e+03 
3.800300e-01 2.208133e+03 
3.812100e-01 2.201436e+03 
3.824200e-01 2.194614e+03 
3.836100e-01 2.187957e+03 
3.848600e-01 2.181020e+03 
3.860400e-01 2.174523e+03 
3.872400e-01 2.167967e+03 
3.884600e-01 2.161368e+03 
3.896500e-01 2.154987e+03 
3.908700e-01 2.148496e+03 
3.920600e-01 2.142213e+03 
3.933100e-01 2.135665e+03 
3.945300e-01 2.129325e+03 
3.957200e-01 2.123123e+03 
3.969300e-01 2.116847e+03 
3.981700e-01 2.110464e+03 
3.993500e-01 2.104437e+03 
4.094840e-01 2.054493e+03 
4.272360e-01 1.972968e+03 
4.454600e-01 1.895886e+03 
4.630560e-01 1.827247e+03 
4.804610e-01 1.763583e+03 
4.980690e-01 1.703894e+03 
5.159230e-01 1.646881e+03 
5.317440e-01 1.599596e+03 
5.489640e-01 1.550826e+03 
5.671990e-01 1.502118e+03 
5.838690e-01 1.460173e+03 
6.018840e-01 1.417310e+03 
6.202330e-01 1.375607e+03 
6.379250e-01 1.337820e+03 
6.545410e-01 1.303771e+03 
6.714560e-01 1.270710e+03 
6.892080e-01 1.237427e+03 
7.066010e-01 1.206399e+03 
7.240540e-01 1.176490e+03 
7.420450e-01 1.146681e+03 
7.593780e-01 1.119321e+03 
7.764720e-01 1.093129e+03 
7.942840e-01 1.066828e+03 
8.116170e-01 1.042290e+03 
8.288310e-01 1.018629e+03 
8.462240e-01 9.955945e+02 
8.631980e-01 9.737496e+02 
8.810700e-01 9.515283e+02 
8.989410e-01 9.300494e+02 
9.166330e-01 9.095218e+02 
9.345640e-01 8.892463e+02 
9.515980e-01 8.706060e+02 
9.688720e-01 8.522452e+02 
9.865640e-01 8.339762e+02 
1.031870e+00 7.896955e+02 
1.063490e+00 7.607564e+02 
1.097920e+00 7.307021e+02 
1.134370e+00 7.007453e+02 
1.167730e+00 6.749176e+02 
1.203830e+00 6.482838e+02 
1.240470e+00 6.228332e+02 
1.275790e+00 5.995109e+02 
1.309140e+00 5.785945e+02 
1.342970e+00 5.584137e+02 
1.378420e+00 5.383004e+02 
1.413200e+00 5.195848e+02 
1.448110e+00 5.016899e+02 
1.484090e+00 4.841303e+02 
1.518820e+00 4.679835e+02 
1.552880e+00 4.529346e+02 
1.588630e+00 4.378219e+02 
1.623230e+00 4.238405e+02 
1.657720e+00 4.105543e+02 
1.692450e+00 3.977729e+02 
1.726400e+00 3.858094e+02 
1.762200e+00 3.737950e+02 
1.797880e+00 3.622789e+02 
1.833270e+00 3.513929e+02 
1.869070e+00 3.408350e+02 
1.903200e+00 3.311772e+02 
1.937740e+00 3.217799e+02 
1.973190e+00 3.125350e+02 
2.007440e+00 3.039925e+02 
2.042160e+00 2.956583e+02 
2.077900e+00 2.874026e+02 
2.112390e+00 2.797340e+02 
2.146220e+00 2.725334e+02 
2.181600e+00 2.652258e+02 
2.216930e+00 2.582255e+02 
2.250760e+00 2.517975e+02 
2.286500e+00 2.452475e+02 
2.321770e+00 2.389898e+02 
2.355950e+00 2.331666e+02 
2.391280e+00 2.273475e+02 
2.426240e+00 2.217852e+02 
2.460670e+00 2.165032e+02 
2.495640e+00 2.113339e+02 
2.531080e+00 2.062305e+02 
2.566220e+00 2.013607e+02 
2.600830e+00 1.967393e+02 
2.635080e+00 1.923275e+02 
2.670340e+00 1.878909e+02 
2.705970e+00 1.835693e+02 
2.740040e+00 1.795754e+02 
2.774520e+00 1.756501e+02 
2.809730e+00 1.717808e+02 
2.844390e+00 1.680941e+02 
2.879960e+00 1.644200e+02 
2.914860e+00 1.609208e+02 
2.949410e+00 1.575581e+02 
2.984440e+00 1.542428e+02 
3.019760e+00 1.510092e+02 
3.054730e+00 1.479080e+02 
3.089030e+00 1.449473e+02 
3.124060e+00 1.420162e+02 
3.159560e+00 1.391394e+02 
3.194710e+00 1.363664e+02 
3.229010e+00 1.337346e+02 
3.263320e+00 1.311682e+02 
3.297930e+00 1.286538e+02 
3.332830e+00 1.261942e+02 
3.368040e+00 1.237773e+02 
3.403300e+00 1.214206e+02 
3.438450e+00 1.191418e+02 
3.473060e+00 1.169593e+02 
3.508440e+00 1.147811e+02 
3.543110e+00 1.127018e+02 
3.577470e+00 1.106902e+02 
3.613040e+00 1.086632e+02 
3.648120e+00 1.067208e+02 
3.682910e+00 1.048417e+02 
3.718050e+00 1.029882e+02 
3.753320e+00 1.011772e+02 
3.787980e+00 9.944529e+01 
3.822290e+00 9.777082e+01 
3.857020e+00 9.611426e+01 
3.891920e+00 9.449158e+01 
3.926650e+00 9.291901e+01 
3.961970e+00 9.135657e+01 
3.997360e+00 8.982569e+01 
4.031670e+00 8.837709e+01 
4.066330e+00 8.695197e+01 
4.101420e+00 8.554227e+01 
4.136200e+00 8.418172e+01 
4.170810e+00 8.285802e+01 
4.206250e+00 8.153064e+01 
4.241580e+00 8.023663e+01 
4.276300e+00 7.899115e+01 
4.310970e+00 7.777342e+01 
4.346120e+00 7.656741e+01 
4.380600e+00 7.541284e+01 
4.414730e+00 7.429406e+01 
4.450350e+00 7.315600e+01 
4.485320e+00 7.206239e+01 
4.519810e+00 7.100469e+01 
4.555430e+00 6.993437e+01 
4.590870e+00 6.889303e+01 
4.625480e+00 6.789954e+01 
4.659910e+00 6.693100e+01 
4.695230e+00 6.596121e+01 
4.729960e+00 6.502729e+01 
4.764450e+00 6.411729e+01 
4.799530e+00 6.320863e+01 
4.834910e+00 6.231030e+01 
4.869700e+00 6.144740e+01 
4.904370e+00 6.060450e+01 
4.939450e+00 5.976750e+01 
4.973940e+00 5.895898e+01 
5.008430e+00 5.816560e+01 
5.043810e+00 5.736925e+01 
5.078840e+00 5.659689e+01 
5.113500e+00 5.584686e+01 
5.148890e+00 5.509824e+01 
5.184210e+00 5.436508e+01 
5.219060e+00 5.365454e+01 
5.253660e+00 5.296076e+01 
5.288570e+00 5.227329e+01 
5.323420e+00 5.160068e+01 
5.358440e+00 5.093838e+01 
5.393590e+00 5.028540e+01 
5.428310e+00 4.965353e+01 
5.462800e+00 4.903763e+01 
5.497640e+00 4.842617e+01 
5.532670e+00 4.782107e+01 
5.567280e+00 4.723314e+01 
5.602000e+00 4.665333e+01 
5.637270e+00 4.607634e+01 
5.672410e+00 4.551170e+01 
5.707020e+00 4.496487e+01 
5.742040e+00 4.442277e+01 
5.777430e+00 4.388449e+01 
5.812210e+00 4.336423e+01 
5.846820e+00 4.285407e+01 
5.881610e+00 4.234934e+01 
5.916510e+00 4.185119e+01 
5.951600e+00 4.135789e+01 
5.986560e+00 4.087409e+01 
6.021830e+00 4.039382e+01 
6.056490e+00 3.993042e+01 
6.091160e+00 3.947504e+01 
6.125830e+00 3.902675e+01 
6.161090e+00 3.857854e+01 
6.195760e+00 3.814595e+01 
6.230420e+00 3.772010e+01 
6.265690e+00 3.729340e+01 
6.300950e+00 3.687288e+01 
6.335620e+00 3.646569e+01 
6.370880e+00 3.605785e+01 
6.405550e+00 3.566401e+01 
6.440220e+00 3.527649e+01 
6.475480e+00 3.488825e+01 
6.510150e+00 3.451200e+01 
6.544810e+00 3.414097e+01 
6.580080e+00 3.376897e+01 
6.614750e+00 3.340864e+01 
6.649410e+00 3.305500e+01 
6.684080e+00 3.270661e+01 
6.719340e+00 3.235739e+01 
6.754010e+00 3.201877e+01 
6.788680e+00 3.168458e+01 
6.823940e+00 3.134953e+01 
6.859800e+00 3.101369e+01 
6.894470e+00 3.069329e+01 
6.929140e+00 3.037722e+01 
6.963800e+00 3.006564e+01 
6.999070e+00 2.975306e+01 
7.033730e+00 2.945145e+01 
7.068400e+00 2.915387e+01 
7.103660e+00 2.885538e+01 
7.138330e+00 2.856578e+01 
7.173600e+00 2.827493e+01 
7.208260e+00 2.799298e+01 
7.243530e+00 2.770994e+01 
7.277600e+00 2.744084e+01 
7.312860e+00 2.716663e+01 
7.348120e+00 2.689609e+01 
7.382790e+00 2.663361e+01 
7.417460e+00 2.637434e+01 
7.452720e+00 2.611401e+01 
7.487390e+00 2.586139e+01 
7.522650e+00 2.560781e+01 
7.557320e+00 2.536155e+01 
7.591990e+00 2.511838e+01 
7.627250e+00 2.487426e+01 
7.662510e+00 2.463330e+01 
7.697180e+00 2.439922e+01 
7.731850e+00 2.416804e+01 
7.766510e+00 2.393983e+01 
7.801180e+00 2.371442e+01 
7.836440e+00 2.348876e+01 
7.871110e+00 2.327008e+01 
7.906380e+00 2.305040e+01 
7.941040e+00 2.283721e+01 
7.976310e+00 2.262229e+01 
8.011570e+00 2.240932e+01 
8.046240e+00 2.220250e+01 
8.080900e+00 2.199826e+01 
8.115570e+00 2.179665e+01 
8.150830e+00 2.159492e+01 
8.185500e+00 2.139896e+01 
8.220770e+00 2.120203e+01 
8.255430e+00 2.101083e+01 
8.290100e+00 2.082272e+01 
8.324770e+00 2.063695e+01 
8.359430e+00 2.045341e+01 
8.394700e+00 2.026886e+01 
8.429960e+00 2.008599e+01 
8.464630e+00 1.990773e+01 
8.499890e+00 1.972857e+01 
8.534560e+00 1.955447e+01 
8.569200e+00 1.938254e+01 
