# Parameters:
# omega_b = 0.022270, omega_m = 0.140000, n_s = 0.968100, h = 67.900000, w = -1.000000, sigma_8 = 0.815400
# z = 0.000000
#
# k[1/Mpc] # P(k):
8.694000e-04 1.588458e+04 
2.077466e-03 3.402928e+04 
3.285532e-03 4.822934e+04 
4.493598e-03 5.915255e+04 
5.701664e-03 6.726732e+04 
6.909730e-03 7.302521e+04 
8.117797e-03 7.693847e+04 
9.325863e-03 7.926958e+04 
1.053393e-02 8.028203e+04 
1.174199e-02 8.022029e+04 
1.295006e-02 7.924023e+04 
1.415813e-02 7.755631e+04 
1.536619e-02 7.534835e+04 
1.657426e-02 7.274112e+04 
1.778233e-02 6.984431e+04 
1.899039e-02 6.681848e+04 
2.019846e-02 6.375734e+04 
2.140652e-02 6.074419e+04 
2.261459e-02 5.782241e+04 
2.382266e-02 5.504377e+04 
2.503072e-02 5.244264e+04 
2.623879e-02 5.003447e+04 
2.744685e-02 4.782373e+04 
2.865492e-02 4.581402e+04 
2.986299e-02 4.399694e+04 
3.100100e-02 4.245788e+04 
3.220400e-02 4.099635e+04 
3.288100e-02 4.024508e+04 
3.424300e-02 3.887105e+04 
3.555100e-02 3.770860e+04 
3.686000e-02 3.666545e+04 
3.795000e-02 3.587672e+04 
3.929100e-02 3.499068e+04 
4.039800e-02 3.430820e+04 
4.164000e-02 3.357355e+04 
4.294400e-02 3.281916e+04 
4.415000e-02 3.213967e+04 
4.542900e-02 3.140237e+04 
4.660900e-02 3.071511e+04 
4.782300e-02 2.997767e+04 
4.892900e-02 2.929051e+04 
5.031200e-02 2.840481e+04 
5.155900e-02 2.758178e+04 
5.238100e-02 2.703089e+04 
5.378200e-02 2.608424e+04 
5.513400e-02 2.515985e+04 
5.627600e-02 2.438464e+04 
5.735300e-02 2.366574e+04 
5.870100e-02 2.278318e+04 
5.988700e-02 2.203452e+04 
6.113500e-02 2.127985e+04 
6.225900e-02 2.063216e+04 
6.340100e-02 2.000723e+04 
6.480200e-02 1.929188e+04 
6.601100e-02 1.872240e+04 
6.725500e-02 1.818194e+04 
6.829100e-02 1.777140e+04 
6.958600e-02 1.729745e+04 
7.071100e-02 1.692255e+04 
7.192300e-02 1.655316e+04 
7.307400e-02 1.623345e+04 
7.412300e-02 1.596582e+04 
7.550400e-02 1.564605e+04 
7.663100e-02 1.540524e+04 
7.791200e-02 1.515177e+04 
7.912700e-02 1.492752e+04 
8.027600e-02 1.472311e+04 
8.138400e-02 1.453141e+04 
8.272200e-02 1.430452e+04 
8.406100e-02 1.407870e+04 
8.534100e-02 1.385936e+04 
8.653800e-02 1.364772e+04 
8.759800e-02 1.345784e+04 
8.900300e-02 1.320068e+04 
9.009000e-02 1.299453e+04 
9.113300e-02 1.279237e+04 
9.239600e-02 1.254562e+04 
9.358000e-02 1.230932e+04 
9.496100e-02 1.203262e+04 
9.608400e-02 1.180885e+04 
9.727500e-02 1.157374e+04 
9.852600e-02 1.132844e+04 
9.973800e-02 1.109772e+04 
1.009000e-01 1.088276e+04 
1.020900e-01 1.066955e+04 
1.034000e-01 1.044503e+04 
1.046000e-01 1.024905e+04 
1.057200e-01 1.007678e+04 
1.069100e-01 9.901411e+03 
1.082500e-01 9.718812e+03 
1.093900e-01 9.571844e+03 
1.105400e-01 9.429709e+03 
1.116900e-01 9.299340e+03 
1.129600e-01 9.161696e+03 
1.142000e-01 9.036821e+03 
1.153300e-01 8.928116e+03 
1.166400e-01 8.808773e+03 
1.177800e-01 8.708385e+03 
1.190000e-01 8.603946e+03 
1.201200e-01 8.511405e+03 
1.213400e-01 8.413169e+03 
1.227100e-01 8.303160e+03 
1.238900e-01 8.210129e+03 
1.250700e-01 8.117043e+03 
1.263200e-01 8.019375e+03 
1.275500e-01 7.922485e+03 
1.287500e-01 7.828945e+03 
1.299900e-01 7.732610e+03 
1.311300e-01 7.644216e+03 
1.323500e-01 7.548980e+03 
1.335900e-01 7.453599e+03 
1.347100e-01 7.368283e+03 
1.359800e-01 7.273017e+03 
1.372100e-01 7.181587e+03 
1.384300e-01 7.092562e+03 
1.395700e-01 7.010348e+03 
1.407700e-01 6.925537e+03 
1.420300e-01 6.837899e+03 
1.432800e-01 6.752839e+03 
1.444500e-01 6.676208e+03 
1.456300e-01 6.600459e+03 
1.468900e-01 6.521505e+03 
1.480500e-01 6.450362e+03 
1.491700e-01 6.383583e+03 
1.503800e-01 6.313599e+03 
1.516400e-01 6.242508e+03 
1.528200e-01 6.178664e+03 
1.540200e-01 6.114968e+03 
1.551900e-01 6.055324e+03 
1.564300e-01 5.993618e+03 
1.576600e-01 5.933802e+03 
1.588700e-01 5.876327e+03 
1.600900e-01 5.819510e+03 
1.612700e-01 5.766594e+03 
1.625400e-01 5.710691e+03 
1.637600e-01 5.657748e+03 
1.649500e-01 5.606888e+03 
1.662200e-01 5.553584e+03 
1.674000e-01 5.504896e+03 
1.685000e-01 5.460260e+03 
1.697500e-01 5.410149e+03 
1.710300e-01 5.359516e+03 
1.722200e-01 5.313269e+03 
1.734400e-01 5.265969e+03 
1.746400e-01 5.220204e+03 
1.758700e-01 5.173853e+03 
1.770900e-01 5.128175e+03 
1.782700e-01 5.084723e+03 
1.794600e-01 5.041226e+03 
1.807000e-01 4.996389e+03 
1.819100e-01 4.953357e+03 
1.830100e-01 4.914912e+03 
1.842200e-01 4.873284e+03 
1.855000e-01 4.829987e+03 
1.867000e-01 4.790435e+03 
1.879200e-01 4.750857e+03 
1.890900e-01 4.713474e+03 
1.902800e-01 4.675950e+03 
1.915200e-01 4.637456e+03 
1.926900e-01 4.601818e+03 
1.939000e-01 4.565926e+03 
1.951700e-01 4.528839e+03 
1.963100e-01 4.496174e+03 
1.975100e-01 4.462623e+03 
1.987800e-01 4.427655e+03 
2.000100e-01 4.394342e+03 
2.012500e-01 4.361348e+03 
2.023400e-01 4.332753e+03 
2.036100e-01 4.299932e+03 
2.048900e-01 4.267450e+03 
2.060400e-01 4.238688e+03 
2.072200e-01 4.209592e+03 
2.084200e-01 4.180540e+03 
2.096900e-01 4.150237e+03 
2.109200e-01 4.121313e+03 
2.121100e-01 4.093596e+03 
2.132700e-01 4.066935e+03 
2.145200e-01 4.038600e+03 
2.157200e-01 4.011751e+03 
2.168800e-01 3.986131e+03 
2.180700e-01 3.960194e+03 
2.193400e-01 3.932885e+03 
2.206000e-01 3.906155e+03 
2.217500e-01 3.882083e+03 
2.229500e-01 3.857288e+03 
2.241400e-01 3.833105e+03 
2.253500e-01 3.808838e+03 
2.264900e-01 3.786266e+03 
2.277100e-01 3.762700e+03 
2.289900e-01 3.738622e+03 
2.301500e-01 3.717085e+03 
2.313600e-01 3.694903e+03 
2.325600e-01 3.673322e+03 
2.337700e-01 3.651837e+03 
2.350000e-01 3.630275e+03 
2.362000e-01 3.609771e+03 
2.374100e-01 3.589669e+03 
2.386500e-01 3.569330e+03 
2.399100e-01 3.548927e+03 
2.410400e-01 3.530907e+03 
2.422500e-01 3.511847e+03 
2.435000e-01 3.492403e+03 
2.447300e-01 3.473632e+03 
2.458700e-01 3.456939e+03 
2.470600e-01 3.439717e+03 
2.483300e-01 3.421564e+03 
2.495600e-01 3.404165e+03 
2.507600e-01 3.387345e+03 
2.519600e-01 3.370724e+03 
2.532200e-01 3.353482e+03 
2.543700e-01 3.337935e+03 
2.555500e-01 3.322164e+03 
2.568000e-01 3.305655e+03 
2.580100e-01 3.289864e+03 
2.592400e-01 3.273960e+03 
2.604100e-01 3.258988e+03 
2.616100e-01 3.243806e+03 
2.628400e-01 3.228423e+03 
2.640600e-01 3.213258e+03 
2.652200e-01 3.198968e+03 
2.664300e-01 3.184227e+03 
2.676500e-01 3.169532e+03 
2.688400e-01 3.155066e+03 
2.700700e-01 3.140098e+03 
2.712400e-01 3.126016e+03 
2.724800e-01 3.111256e+03 
2.736700e-01 3.097197e+03 
2.748800e-01 3.083005e+03 
2.761000e-01 3.068852e+03 
2.773200e-01 3.054854e+03 
2.785400e-01 3.040884e+03 
2.797000e-01 3.027483e+03 
2.808900e-01 3.013877e+03 
2.821400e-01 2.999738e+03 
2.833900e-01 2.985746e+03 
2.845500e-01 2.972740e+03 
2.857800e-01 2.959091e+03 
2.870300e-01 2.945368e+03 
2.882100e-01 2.932548e+03 
2.893900e-01 2.919673e+03 
2.906300e-01 2.906182e+03 
2.918900e-01 2.892619e+03 
2.930500e-01 2.880259e+03 
2.942500e-01 2.867604e+03 
2.954200e-01 2.855404e+03 
2.966500e-01 2.842705e+03 
2.978900e-01 2.830034e+03 
2.990400e-01 2.818399e+03 
3.002700e-01 2.805901e+03 
3.015100e-01 2.793343e+03 
3.026800e-01 2.781610e+03 
3.038500e-01 2.769989e+03 
3.050300e-01 2.758380e+03 
3.062600e-01 2.746462e+03 
3.075000e-01 2.734565e+03 
3.087000e-01 2.723165e+03 
3.099100e-01 2.711780e+03 
3.111200e-01 2.700467e+03 
3.123100e-01 2.689381e+03 
3.135300e-01 2.678124e+03 
3.147300e-01 2.667157e+03 
3.159900e-01 2.655752e+03 
3.171800e-01 2.645034e+03 
3.183700e-01 2.634383e+03 
3.196300e-01 2.623212e+03 
3.208400e-01 2.612586e+03 
3.220300e-01 2.602232e+03 
3.232000e-01 2.592174e+03 
3.244300e-01 2.581708e+03 
3.256700e-01 2.571257e+03 
3.269200e-01 2.560820e+03 
3.280800e-01 2.551222e+03 
3.292500e-01 2.541642e+03 
3.304800e-01 2.531667e+03 
3.317100e-01 2.521782e+03 
3.328900e-01 2.512385e+03 
3.340700e-01 2.503070e+03 
3.353600e-01 2.493004e+03 
3.365300e-01 2.483967e+03 
3.377100e-01 2.474930e+03 
3.389200e-01 2.465745e+03 
3.401600e-01 2.456417e+03 
3.413700e-01 2.447405e+03 
3.425300e-01 2.438848e+03 
3.437700e-01 2.429779e+03 
3.449800e-01 2.421008e+03 
3.461800e-01 2.412385e+03 
3.473600e-01 2.403985e+03 
3.485800e-01 2.395391e+03 
3.498100e-01 2.386802e+03 
3.510200e-01 2.378427e+03 
3.522000e-01 2.370327e+03 
3.533900e-01 2.362228e+03 
3.546400e-01 2.353889e+03 
3.558400e-01 2.345959e+03 
3.570600e-01 2.337965e+03 
3.582700e-01 2.330103e+03 
3.595000e-01 2.322179e+03 
3.607100e-01 2.314408e+03 
3.618900e-01 2.306860e+03 
3.631200e-01 2.299057e+03 
3.643200e-01 2.291507e+03 
3.655500e-01 2.283833e+03 
3.667300e-01 2.276532e+03 
3.679500e-01 2.269038e+03 
3.691900e-01 2.261485e+03 
3.703600e-01 2.254416e+03 
3.715700e-01 2.247164e+03 
3.727700e-01 2.240030e+03 
3.739900e-01 2.232848e+03 
3.752000e-01 2.225801e+03 
3.763900e-01 2.218926e+03 
3.775800e-01 2.212106e+03 
3.788200e-01 2.205056e+03 
3.800300e-01 2.198233e+03 
3.812100e-01 2.191622e+03 
3.824200e-01 2.184890e+03 
3.836100e-01 2.178322e+03 
3.848600e-01 2.171477e+03 
3.860400e-01 2.165067e+03 
3.872400e-01 2.158599e+03 
3.884600e-01 2.152087e+03 
3.896500e-01 2.145790e+03 
3.908700e-01 2.139385e+03 
3.920600e-01 2.133185e+03 
3.933100e-01 2.126724e+03 
3.945300e-01 2.120467e+03 
3.957200e-01 2.114349e+03 
3.969300e-01 2.108158e+03 
3.981700e-01 2.101863e+03 
3.993500e-01 2.095918e+03 
4.094840e-01 2.046665e+03 
4.272360e-01 1.966288e+03 
4.454600e-01 1.890296e+03 
4.630560e-01 1.822607e+03 
4.804610e-01 1.759808e+03 
4.980690e-01 1.700910e+03 
5.159230e-01 1.644639e+03 
5.317440e-01 1.597973e+03 
5.489640e-01 1.549814e+03 
5.671990e-01 1.501723e+03 
5.838690e-01 1.460297e+03 
6.018840e-01 1.417966e+03 
6.202330e-01 1.376764e+03 
6.379250e-01 1.339428e+03 
6.545410e-01 1.305772e+03 
6.714560e-01 1.273082e+03 
6.892080e-01 1.240160e+03 
7.066010e-01 1.209456e+03 
7.240540e-01 1.179838e+03 
7.420450e-01 1.150305e+03 
7.593780e-01 1.123186e+03 
7.764720e-01 1.097203e+03 
7.942840e-01 1.071106e+03 
8.116170e-01 1.046736e+03 
8.288310e-01 1.023224e+03 
8.462240e-01 1.000322e+03 
8.631980e-01 9.785878e+02 
8.810700e-01 9.564638e+02 
8.989410e-01 9.350692e+02 
9.166330e-01 9.146132e+02 
9.345640e-01 8.943911e+02 
9.515980e-01 8.757914e+02 
9.688720e-01 8.574657e+02 
9.865640e-01 8.392170e+02 
1.031870e+00 7.949594e+02 
1.063490e+00 7.660069e+02 
1.097920e+00 7.359145e+02 
1.134370e+00 7.059046e+02 
1.167730e+00 6.800163e+02 
1.203830e+00 6.533000e+02 
1.240470e+00 6.277627e+02 
1.275790e+00 6.043494e+02 
1.309140e+00 5.833417e+02 
1.342970e+00 5.630663e+02 
1.378420e+00 5.428538e+02 
1.413200e+00 5.240400e+02 
1.448110e+00 5.060448e+02 
1.484090e+00 4.883847e+02 
1.518820e+00 4.721410e+02 
1.552880e+00 4.570000e+02 
1.588630e+00 4.417900e+02 
1.623230e+00 4.277178e+02 
1.657720e+00 4.143428e+02 
1.692450e+00 4.014746e+02 
1.726400e+00 3.894270e+02 
1.762200e+00 3.773271e+02 
1.797880e+00 3.657272e+02 
1.833270e+00 3.547623e+02 
1.869070e+00 3.441269e+02 
1.903200e+00 3.343962e+02 
1.937740e+00 3.249274e+02 
1.973190e+00 3.156118e+02 
2.007440e+00 3.070031e+02 
2.042160e+00 2.986033e+02 
2.077900e+00 2.902827e+02 
2.112390e+00 2.825531e+02 
2.146220e+00 2.752946e+02 
2.181600e+00 2.679281e+02 
2.216930e+00 2.608710e+02 
2.250760e+00 2.543905e+02 
2.286500e+00 2.477865e+02 
2.321770e+00 2.414768e+02 
2.355950e+00 2.356052e+02 
2.391280e+00 2.297376e+02 
2.426240e+00 2.241282e+02 
2.460670e+00 2.188015e+02 
2.495640e+00 2.135885e+02 
2.531080e+00 2.084415e+02 
2.566220e+00 2.035297e+02 
2.600830e+00 1.988684e+02 
2.635080e+00 1.944185e+02 
2.670340e+00 1.899433e+02 
2.705970e+00 1.855842e+02 
2.740040e+00 1.815555e+02 
2.774520e+00 1.775956e+02 
2.809730e+00 1.736924e+02 
2.844390e+00 1.699733e+02 
2.879960e+00 1.662667e+02 
2.914860e+00 1.627362e+02 
2.949410e+00 1.593434e+02 
2.984440e+00 1.559984e+02 
3.019760e+00 1.527360e+02 
3.054730e+00 1.496070e+02 
3.089030e+00 1.466195e+02 
3.124060e+00 1.436618e+02 
3.159560e+00 1.407590e+02 
3.194710e+00 1.379608e+02 
3.229010e+00 1.353049e+02 
3.263320e+00 1.327149e+02 
3.297930e+00 1.301774e+02 
3.332830e+00 1.276954e+02 
3.368040e+00 1.252562e+02 
3.403300e+00 1.228777e+02 
3.438450e+00 1.205777e+02 
3.473060e+00 1.183749e+02 
3.508440e+00 1.161765e+02 
3.543110e+00 1.140780e+02 
3.577470e+00 1.120474e+02 
3.613040e+00 1.100013e+02 
3.648120e+00 1.080406e+02 
3.682910e+00 1.061437e+02 
3.718050e+00 1.042728e+02 
3.753320e+00 1.024446e+02 
3.787980e+00 1.006963e+02 
3.822290e+00 9.900584e+01 
3.857020e+00 9.733342e+01 
3.891920e+00 9.569516e+01 
3.926650e+00 9.410749e+01 
3.961970e+00 9.252999e+01 
3.997360e+00 9.098432e+01 
4.031670e+00 8.952166e+01 
4.066330e+00 8.808264e+01 
4.101420e+00 8.665915e+01 
4.136200e+00 8.528539e+01 
4.170810e+00 8.394881e+01 
4.206250e+00 8.260838e+01 
4.241580e+00 8.130160e+01 
4.276300e+00 8.004375e+01 
4.310970e+00 7.881385e+01 
4.346120e+00 7.759580e+01 
4.380600e+00 7.642970e+01 
4.414730e+00 7.529973e+01 
4.450350e+00 7.415025e+01 
4.485320e+00 7.304565e+01 
4.519810e+00 7.197721e+01 
4.555430e+00 7.089597e+01 
4.590870e+00 6.984397e+01 
4.625480e+00 6.884032e+01 
4.659910e+00 6.786186e+01 
4.695230e+00 6.688209e+01 
4.729960e+00 6.593852e+01 
4.764450e+00 6.501911e+01 
4.799530e+00 6.410105e+01 
4.834910e+00 6.319339e+01 
4.869700e+00 6.232141e+01 
4.904370e+00 6.146959e+01 
4.939450e+00 6.062372e+01 
4.973940e+00 5.980664e+01 
5.008430e+00 5.900483e+01 
5.043810e+00 5.819996e+01 
5.078840e+00 5.741932e+01 
5.113500e+00 5.666120e+01 
5.148890e+00 5.590450e+01 
5.184210e+00 5.516341e+01 
5.219060e+00 5.444515e+01 
5.253660e+00 5.374377e+01 
5.288570e+00 5.304877e+01 
5.323420e+00 5.236874e+01 
5.358440e+00 5.169910e+01 
5.393590e+00 5.103886e+01 
5.428310e+00 5.039994e+01 
5.462800e+00 4.977715e+01 
5.497640e+00 4.915883e+01 
5.532670e+00 4.854686e+01 
5.567280e+00 4.795223e+01 
5.602000e+00 4.736579e+01 
5.637270e+00 4.678218e+01 
5.672410e+00 4.621104e+01 
5.707020e+00 4.565790e+01 
5.742040e+00 4.510953e+01 
5.777430e+00 4.456500e+01 
5.812210e+00 4.403867e+01 
5.846820e+00 4.352250e+01 
5.881610e+00 4.301179e+01 
5.916510e+00 4.250772e+01 
5.951600e+00 4.200852e+01 
5.986560e+00 4.151890e+01 
6.021830e+00 4.103285e+01 
6.056490e+00 4.056385e+01 
6.091160e+00 4.010293e+01 
6.125830e+00 3.964918e+01 
6.161090e+00 3.919550e+01 
6.195760e+00 3.875760e+01 
6.230420e+00 3.832651e+01 
6.265690e+00 3.789455e+01 
6.300950e+00 3.746877e+01 
6.335620e+00 3.705649e+01 
6.370880e+00 3.664353e+01 
6.405550e+00 3.624470e+01 
6.440220e+00 3.585224e+01 
6.475480e+00 3.545905e+01 
6.510150e+00 3.507798e+01 
6.544810e+00 3.470218e+01 
6.580080e+00 3.432538e+01 
6.614750e+00 3.396041e+01 
6.649410e+00 3.360216e+01 
6.684080e+00 3.324920e+01 
6.719340e+00 3.289540e+01 
6.754010e+00 3.255233e+01 
6.788680e+00 3.221368e+01 
6.823940e+00 3.187415e+01 
6.859800e+00 3.153382e+01 
6.894470e+00 3.120909e+01 
6.929140e+00 3.088875e+01 
6.963800e+00 3.057293e+01 
6.999070e+00 3.025611e+01 
7.033730e+00 2.995036e+01 
7.068400e+00 2.964869e+01 
7.103660e+00 2.934608e+01 
7.138330e+00 2.905247e+01 
7.173600e+00 2.875757e+01 
7.208260e+00 2.847169e+01 
7.243530e+00 2.818469e+01 
7.277600e+00 2.791180e+01 
7.312860e+00 2.763370e+01 
7.348120e+00 2.735933e+01 
7.382790e+00 2.709311e+01 
7.417460e+00 2.683013e+01 
7.452720e+00 2.656606e+01 
7.487390e+00 2.630980e+01 
7.522650e+00 2.605258e+01 
7.557320e+00 2.580272e+01 
7.591990e+00 2.555599e+01 
7.627250e+00 2.530829e+01 
7.662510e+00 2.506379e+01 
7.697180e+00 2.482625e+01 
7.731850e+00 2.459162e+01 
7.766510e+00 2.436002e+01 
7.801180e+00 2.413125e+01 
7.836440e+00 2.390220e+01 
7.871110e+00 2.368023e+01 
7.906380e+00 2.345724e+01 
7.941040e+00 2.324082e+01 
7.976310e+00 2.302263e+01 
8.011570e+00 2.280638e+01 
8.046240e+00 2.259637e+01 
8.080900e+00 2.238898e+01 
8.115570e+00 2.218425e+01 
8.150830e+00 2.197939e+01 
8.185500e+00 2.178040e+01 
8.220770e+00 2.158041e+01 
8.255430e+00 2.138624e+01 
8.290100e+00 2.119516e+01 
8.324770e+00 2.100645e+01 
8.359430e+00 2.082001e+01 
8.394700e+00 2.063254e+01 
8.429960e+00 2.044676e+01 
8.464630e+00 2.026564e+01 
8.499890e+00 2.008360e+01 
8.534560e+00 1.990671e+01 
8.569200e+00 1.973201e+01 
