# Parameters:
# omega_b = 0.022270, omega_m = 0.122000, n_s = 0.968100, h = 67.900000, w = -1.000000, sigma_8 = 0.815400
# z = 0.000000
#
# k[1/Mpc] # P(k):
8.694000e-04 2.418497e+04 
2.077466e-03 5.098436e+04 
3.285532e-03 7.113945e+04 
4.493598e-03 8.589199e+04 
5.701664e-03 9.620289e+04 
6.909730e-03 1.029108e+05 
8.117797e-03 1.068860e+05 
9.325863e-03 1.085800e+05 
1.053393e-02 1.084294e+05 
1.174199e-02 1.068297e+05 
1.295006e-02 1.040325e+05 
1.415813e-02 1.003690e+05 
1.536619e-02 9.611210e+04 
1.657426e-02 9.134327e+04 
1.778233e-02 8.588774e+04 
1.899039e-02 8.021408e+04 
2.019846e-02 7.513992e+04 
2.140652e-02 7.071579e+04 
2.261459e-02 6.666994e+04 
2.382266e-02 6.293560e+04 
2.503072e-02 5.952221e+04 
2.623879e-02 5.643355e+04 
2.744685e-02 5.366781e+04 
2.865492e-02 5.120694e+04 
2.986299e-02 4.902653e+04 
3.100100e-02 4.721660e+04 
3.220400e-02 4.552681e+04 
3.288100e-02 4.466957e+04 
3.424300e-02 4.311510e+04 
3.555100e-02 4.180732e+04 
3.686000e-02 4.063274e+04 
3.795000e-02 3.973790e+04 
3.929100e-02 3.871499e+04 
4.039800e-02 3.790963e+04 
4.164000e-02 3.702583e+04 
4.294400e-02 3.609126e+04 
4.415000e-02 3.523489e+04 
4.542900e-02 3.429074e+04 
4.660900e-02 3.340631e+04 
4.782300e-02 3.245554e+04 
4.892900e-02 3.157486e+04 
5.031200e-02 3.045082e+04 
5.155900e-02 2.942170e+04 
5.238100e-02 2.874203e+04 
5.378200e-02 2.759102e+04 
5.513400e-02 2.649113e+04 
5.627600e-02 2.558632e+04 
5.735300e-02 2.476090e+04 
5.870100e-02 2.376602e+04 
5.988700e-02 2.293659e+04 
6.113500e-02 2.211413e+04 
6.225900e-02 2.141986e+04 
6.340100e-02 2.075988e+04 
6.480200e-02 2.001448e+04 
6.601100e-02 1.943094e+04 
6.725500e-02 1.888453e+04 
6.829100e-02 1.847526e+04 
6.958600e-02 1.800703e+04 
7.071100e-02 1.764059e+04 
7.192300e-02 1.728228e+04 
7.307400e-02 1.697389e+04 
7.412300e-02 1.671640e+04 
7.550400e-02 1.640833e+04 
7.663100e-02 1.617502e+04 
7.791200e-02 1.592543e+04 
7.912700e-02 1.569916e+04 
8.027600e-02 1.548757e+04 
8.138400e-02 1.528409e+04 
8.272200e-02 1.503584e+04 
8.406100e-02 1.478091e+04 
8.534100e-02 1.452492e+04 
8.653800e-02 1.427242e+04 
8.759800e-02 1.404318e+04 
8.900300e-02 1.372959e+04 
9.009000e-02 1.347717e+04 
9.113300e-02 1.322987e+04 
9.239600e-02 1.292930e+04 
9.358000e-02 1.264419e+04 
9.496100e-02 1.231537e+04 
9.608400e-02 1.205353e+04 
9.727500e-02 1.178195e+04 
9.852600e-02 1.150784e+04 
9.973800e-02 1.125455e+04 
1.009000e-01 1.102231e+04 
1.020900e-01 1.080109e+04 
1.034000e-01 1.057209e+04 
1.046000e-01 1.037631e+04 
1.057200e-01 1.021010e+04 
1.069100e-01 1.004277e+04 
1.082500e-01 9.873445e+03 
1.093900e-01 9.739071e+03 
1.105400e-01 9.610250e+03 
1.116900e-01 9.493503e+03 
1.129600e-01 9.370372e+03 
1.142000e-01 9.258142e+03 
1.153300e-01 9.159501e+03 
1.166400e-01 9.049720e+03 
1.177800e-01 8.954679e+03 
1.190000e-01 8.854532e+03 
1.201200e-01 8.761805e+03 
1.213400e-01 8.662651e+03 
1.227100e-01 8.545702e+03 
1.238900e-01 8.445710e+03 
1.250700e-01 8.342222e+03 
1.263200e-01 8.232639e+03 
1.275500e-01 8.121739e+03 
1.287500e-01 8.014019e+03 
1.299900e-01 7.902058e+03 
1.311300e-01 7.799469e+03 
1.323500e-01 7.689144e+03 
1.335900e-01 7.579308e+03 
1.347100e-01 7.481897e+03 
1.359800e-01 7.374049e+03 
1.372100e-01 7.272328e+03 
1.384300e-01 7.174205e+03 
1.395700e-01 7.085731e+03 
1.407700e-01 6.994775e+03 
1.420300e-01 6.903803e+03 
1.432800e-01 6.815517e+03 
1.444500e-01 6.738641e+03 
1.456300e-01 6.662650e+03 
1.468900e-01 6.584928e+03 
1.480500e-01 6.515336e+03 
1.491700e-01 6.450466e+03 
1.503800e-01 6.383073e+03 
1.516400e-01 6.314642e+03 
1.528200e-01 6.253330e+03 
1.540200e-01 6.192157e+03 
1.551900e-01 6.134495e+03 
1.564300e-01 6.074746e+03 
1.576600e-01 6.016376e+03 
1.588700e-01 5.959747e+03 
1.600900e-01 5.903704e+03 
1.612700e-01 5.850374e+03 
1.625400e-01 5.794035e+03 
1.637600e-01 5.739962e+03 
1.649500e-01 5.687602e+03 
1.662200e-01 5.632578e+03 
1.674000e-01 5.581502e+03 
1.685000e-01 5.534677e+03 
1.697500e-01 5.481793e+03 
1.710300e-01 5.428047e+03 
1.722200e-01 5.378957e+03 
1.734400e-01 5.328475e+03 
1.746400e-01 5.279622e+03 
1.758700e-01 5.230159e+03 
1.770900e-01 5.181444e+03 
1.782700e-01 5.135107e+03 
1.794600e-01 5.088898e+03 
1.807000e-01 5.041384e+03 
1.819100e-01 4.995788e+03 
1.830100e-01 4.955388e+03 
1.842200e-01 4.911703e+03 
1.855000e-01 4.866290e+03 
1.867000e-01 4.825271e+03 
1.879200e-01 4.784228e+03 
1.890900e-01 4.745539e+03 
1.902800e-01 4.707112e+03 
1.915200e-01 4.667694e+03 
1.926900e-01 4.631293e+03 
1.939000e-01 4.594940e+03 
1.951700e-01 4.557378e+03 
1.963100e-01 4.524368e+03 
1.975100e-01 4.490661e+03 
1.987800e-01 4.455530e+03 
2.000100e-01 4.422105e+03 
2.012500e-01 4.389098e+03 
2.023400e-01 4.360493e+03 
2.036100e-01 4.327660e+03 
2.048900e-01 4.295166e+03 
2.060400e-01 4.266393e+03 
2.072200e-01 4.237277e+03 
2.084200e-01 4.208095e+03 
2.096900e-01 4.177656e+03 
2.109200e-01 4.148603e+03 
2.121100e-01 4.120590e+03 
2.132700e-01 4.093636e+03 
2.145200e-01 4.064990e+03 
2.157200e-01 4.037716e+03 
2.168800e-01 4.011631e+03 
2.180700e-01 3.985224e+03 
2.193400e-01 3.957361e+03 
2.206000e-01 3.929983e+03 
2.217500e-01 3.905326e+03 
2.229500e-01 3.879930e+03 
2.241400e-01 3.855075e+03 
2.253500e-01 3.830132e+03 
2.264900e-01 3.806930e+03 
2.277100e-01 3.782722e+03 
2.289900e-01 3.758004e+03 
2.301500e-01 3.735894e+03 
2.313600e-01 3.713122e+03 
2.325600e-01 3.691116e+03 
2.337700e-01 3.669207e+03 
2.350000e-01 3.647219e+03 
2.362000e-01 3.626420e+03 
2.374100e-01 3.606162e+03 
2.386500e-01 3.585664e+03 
2.399100e-01 3.565102e+03 
2.410400e-01 3.547191e+03 
2.422500e-01 3.528279e+03 
2.435000e-01 3.508986e+03 
2.447300e-01 3.490418e+03 
2.458700e-01 3.474130e+03 
2.470600e-01 3.457328e+03 
2.483300e-01 3.439618e+03 
2.495600e-01 3.422726e+03 
2.507600e-01 3.406510e+03 
2.519600e-01 3.390488e+03 
2.532200e-01 3.373869e+03 
2.543700e-01 3.358925e+03 
2.555500e-01 3.343797e+03 
2.568000e-01 3.327962e+03 
2.580100e-01 3.312818e+03 
2.592400e-01 3.297538e+03 
2.604100e-01 3.283142e+03 
2.616100e-01 3.268546e+03 
2.628400e-01 3.253758e+03 
2.640600e-01 3.239083e+03 
2.652200e-01 3.225216e+03 
2.664300e-01 3.210912e+03 
2.676500e-01 3.196655e+03 
2.688400e-01 3.182502e+03 
2.700700e-01 3.167785e+03 
2.712400e-01 3.153941e+03 
2.724800e-01 3.139429e+03 
2.736700e-01 3.125526e+03 
2.748800e-01 3.111408e+03 
2.761000e-01 3.097329e+03 
2.773200e-01 3.083404e+03 
2.785400e-01 3.069461e+03 
2.797000e-01 3.055992e+03 
2.808900e-01 3.042318e+03 
2.821400e-01 3.028107e+03 
2.833900e-01 3.014041e+03 
2.845500e-01 3.000876e+03 
2.857800e-01 2.987062e+03 
2.870300e-01 2.973172e+03 
2.882100e-01 2.960197e+03 
2.893900e-01 2.947126e+03 
2.906300e-01 2.933410e+03 
2.918900e-01 2.919619e+03 
2.930500e-01 2.907052e+03 
2.942500e-01 2.894179e+03 
2.954200e-01 2.881745e+03 
2.966500e-01 2.868803e+03 
2.978900e-01 2.855890e+03 
2.990400e-01 2.844032e+03 
3.002700e-01 2.831282e+03 
3.015100e-01 2.818466e+03 
3.026800e-01 2.806492e+03 
3.038500e-01 2.794632e+03 
3.050300e-01 2.782785e+03 
3.062600e-01 2.770625e+03 
3.075000e-01 2.758487e+03 
3.087000e-01 2.746855e+03 
3.099100e-01 2.735238e+03 
3.111200e-01 2.723695e+03 
3.123100e-01 2.712383e+03 
3.135300e-01 2.700896e+03 
3.147300e-01 2.689705e+03 
3.159900e-01 2.678067e+03 
3.171800e-01 2.667134e+03 
3.183700e-01 2.656273e+03 
3.196300e-01 2.644881e+03 
3.208400e-01 2.634045e+03 
3.220300e-01 2.623486e+03 
3.232000e-01 2.613234e+03 
3.244300e-01 2.602569e+03 
3.256700e-01 2.591918e+03 
3.269200e-01 2.581282e+03 
3.280800e-01 2.571501e+03 
3.292500e-01 2.561736e+03 
3.304800e-01 2.551567e+03 
3.317100e-01 2.541490e+03 
3.328900e-01 2.531910e+03 
3.340700e-01 2.522413e+03 
3.353600e-01 2.512153e+03 
3.365300e-01 2.502942e+03 
3.377100e-01 2.493733e+03 
3.389200e-01 2.484371e+03 
3.401600e-01 2.474864e+03 
3.413700e-01 2.465681e+03 
3.425300e-01 2.456961e+03 
3.437700e-01 2.447721e+03 
3.449800e-01 2.438783e+03 
3.461800e-01 2.429996e+03 
3.473600e-01 2.421436e+03 
3.485800e-01 2.412675e+03 
3.498100e-01 2.403919e+03 
3.510200e-01 2.395381e+03 
3.522000e-01 2.387124e+03 
3.533900e-01 2.378866e+03 
3.546400e-01 2.370358e+03 
3.558400e-01 2.362265e+03 
3.570600e-01 2.354107e+03 
3.582700e-01 2.346084e+03 
3.595000e-01 2.337998e+03 
3.607100e-01 2.330067e+03 
3.618900e-01 2.322361e+03 
3.631200e-01 2.314395e+03 
3.643200e-01 2.306688e+03 
3.655500e-01 2.298854e+03 
3.667300e-01 2.291400e+03 
3.679500e-01 2.283745e+03 
3.691900e-01 2.276028e+03 
3.703600e-01 2.268807e+03 
3.715700e-01 2.261398e+03 
3.727700e-01 2.254110e+03 
3.739900e-01 2.246771e+03 
3.752000e-01 2.239573e+03 
3.763900e-01 2.232549e+03 
3.775800e-01 2.225581e+03 
3.788200e-01 2.218379e+03 
3.800300e-01 2.211407e+03 
3.812100e-01 2.204646e+03 
3.824200e-01 2.197757e+03 
3.836100e-01 2.191035e+03 
3.848600e-01 2.184030e+03 
3.860400e-01 2.177469e+03 
3.872400e-01 2.170849e+03 
3.884600e-01 2.164185e+03 
3.896500e-01 2.157742e+03 
3.908700e-01 2.151187e+03 
3.920600e-01 2.144843e+03 
3.933100e-01 2.138231e+03 
3.945300e-01 2.131829e+03 
3.957200e-01 2.125565e+03 
3.969300e-01 2.119226e+03 
3.981700e-01 2.112780e+03 
3.993500e-01 2.106692e+03 
4.094840e-01 2.056237e+03 
4.272360e-01 1.973864e+03 
4.454600e-01 1.895979e+03 
4.630560e-01 1.826646e+03 
4.804610e-01 1.762357e+03 
4.980690e-01 1.702100e+03 
5.159230e-01 1.644561e+03 
5.317440e-01 1.596838e+03 
5.489640e-01 1.547644e+03 
5.671990e-01 1.498508e+03 
5.838690e-01 1.456207e+03 
6.018840e-01 1.412984e+03 
6.202330e-01 1.370945e+03 
6.379250e-01 1.332859e+03 
6.545410e-01 1.298553e+03 
6.714560e-01 1.265254e+03 
6.892080e-01 1.231746e+03 
7.066010e-01 1.200520e+03 
7.240540e-01 1.170438e+03 
7.420450e-01 1.140472e+03 
7.593780e-01 1.112979e+03 
7.764720e-01 1.086679e+03 
7.942840e-01 1.060277e+03 
8.116170e-01 1.035664e+03 
8.288310e-01 1.011944e+03 
8.462240e-01 9.888613e+02 
8.631980e-01 9.669847e+02 
8.810700e-01 9.447448e+02 
8.989410e-01 9.232566e+02 
9.166330e-01 9.027281e+02 
9.345640e-01 8.824670e+02 
9.515980e-01 8.638471e+02 
9.688720e-01 8.455110e+02 
9.865640e-01 8.272791e+02 
1.031870e+00 7.831109e+02 
1.063490e+00 7.542698e+02 
1.097920e+00 7.243378e+02 
1.134370e+00 6.945154e+02 
1.167730e+00 6.688164e+02 
1.203830e+00 6.423317e+02 
1.240470e+00 6.170303e+02 
1.275790e+00 5.938538e+02 
1.309140e+00 5.730763e+02 
1.342970e+00 5.530347e+02 
1.378420e+00 5.330641e+02 
1.413200e+00 5.144859e+02 
1.448110e+00 4.967275e+02 
1.484090e+00 4.793035e+02 
1.518820e+00 4.632848e+02 
1.552880e+00 4.483565e+02 
1.588630e+00 4.333688e+02 
1.623230e+00 4.195036e+02 
1.657720e+00 4.063296e+02 
1.692450e+00 3.936572e+02 
1.726400e+00 3.817980e+02 
1.762200e+00 3.698889e+02 
1.797880e+00 3.584752e+02 
1.833270e+00 3.476857e+02 
1.869070e+00 3.372220e+02 
1.903200e+00 3.276520e+02 
1.937740e+00 3.183404e+02 
1.973190e+00 3.091800e+02 
2.007440e+00 3.007161e+02 
2.042160e+00 2.924594e+02 
2.077900e+00 2.842805e+02 
2.112390e+00 2.766837e+02 
2.146220e+00 2.695508e+02 
2.181600e+00 2.623120e+02 
2.216930e+00 2.553779e+02 
2.250760e+00 2.490110e+02 
2.286500e+00 2.425235e+02 
2.321770e+00 2.363259e+02 
2.355950e+00 2.305586e+02 
2.391280e+00 2.247952e+02 
2.426240e+00 2.192868e+02 
2.460670e+00 2.140561e+02 
2.495640e+00 2.089366e+02 
2.531080e+00 2.038831e+02 
2.566220e+00 1.990608e+02 
2.600830e+00 1.944847e+02 
2.635080e+00 1.901161e+02 
2.670340e+00 1.857231e+02 
2.705970e+00 1.814439e+02 
2.740040e+00 1.774894e+02 
2.774520e+00 1.736028e+02 
2.809730e+00 1.697717e+02 
2.844390e+00 1.661214e+02 
2.879960e+00 1.624838e+02 
2.914860e+00 1.590195e+02 
2.949410e+00 1.556905e+02 
2.984440e+00 1.524081e+02 
3.019760e+00 1.492068e+02 
3.054730e+00 1.461366e+02 
3.089030e+00 1.432057e+02 
3.124060e+00 1.403040e+02 
3.159560e+00 1.374560e+02 
3.194710e+00 1.347110e+02 
3.229010e+00 1.321057e+02 
3.263320e+00 1.295654e+02 
3.297930e+00 1.270764e+02 
3.332830e+00 1.246416e+02 
3.368040e+00 1.222493e+02 
3.403300e+00 1.199166e+02 
3.438450e+00 1.176610e+02 
3.473060e+00 1.155008e+02 
3.508440e+00 1.133447e+02 
3.543110e+00 1.112867e+02 
3.577470e+00 1.092957e+02 
3.613040e+00 1.072895e+02 
3.648120e+00 1.053672e+02 
3.682910e+00 1.035074e+02 
3.718050e+00 1.016729e+02 
3.753320e+00 9.988059e+01 
3.787980e+00 9.816663e+01 
3.822290e+00 9.650952e+01 
3.857020e+00 9.487019e+01 
3.891920e+00 9.326440e+01 
3.926650e+00 9.170821e+01 
3.961970e+00 9.016208e+01 
3.997360e+00 8.864721e+01 
4.031670e+00 8.721380e+01 
4.066330e+00 8.580370e+01 
4.101420e+00 8.440887e+01 
4.136200e+00 8.306258e+01 
4.170810e+00 8.175279e+01 
4.206250e+00 8.043945e+01 
4.241580e+00 7.915919e+01 
4.276300e+00 7.792700e+01 
4.310970e+00 7.672230e+01 
4.346120e+00 7.552922e+01 
4.380600e+00 7.438700e+01 
4.414730e+00 7.328022e+01 
4.450350e+00 7.215437e+01 
4.485320e+00 7.107253e+01 
4.519810e+00 7.002629e+01 
4.555430e+00 6.896763e+01 
4.590870e+00 6.793764e+01 
4.625480e+00 6.695497e+01 
4.659910e+00 6.599701e+01 
4.695230e+00 6.503784e+01 
4.729960e+00 6.411417e+01 
4.764450e+00 6.321417e+01 
4.799530e+00 6.231550e+01 
4.834910e+00 6.142706e+01 
4.869700e+00 6.057378e+01 
4.904370e+00 5.974032e+01 
4.939450e+00 5.891269e+01 
4.973940e+00 5.811322e+01 
5.008430e+00 5.732874e+01 
5.043810e+00 5.654137e+01 
5.078840e+00 5.577776e+01 
5.113500e+00 5.503623e+01 
5.148890e+00 5.429612e+01 
5.184210e+00 5.357131e+01 
5.219060e+00 5.286889e+01 
5.253660e+00 5.218307e+01 
5.288570e+00 5.150351e+01 
5.323420e+00 5.083868e+01 
5.358440e+00 5.018406e+01 
5.393590e+00 4.953868e+01 
5.428310e+00 4.891418e+01 
5.462800e+00 4.830548e+01 
5.497640e+00 4.770118e+01 
5.532670e+00 4.710323e+01 
5.567280e+00 4.652229e+01 
5.602000e+00 4.594938e+01 
5.637270e+00 4.537928e+01 
5.672410e+00 4.482138e+01 
5.707020e+00 4.428110e+01 
5.742040e+00 4.374552e+01 
5.777430e+00 4.321373e+01 
5.812210e+00 4.269975e+01 
5.846820e+00 4.219582e+01 
5.881610e+00 4.169726e+01 
5.916510e+00 4.120523e+01 
5.951600e+00 4.071802e+01 
5.986560e+00 4.024022e+01 
6.021830e+00 3.976592e+01 
6.056490e+00 3.930829e+01 
6.091160e+00 3.885860e+01 
6.125830e+00 3.841592e+01 
6.161090e+00 3.797334e+01 
6.195760e+00 3.754621e+01 
6.230420e+00 3.712574e+01 
6.265690e+00 3.670443e+01 
6.300950e+00 3.628930e+01 
6.335620e+00 3.588733e+01 
6.370880e+00 3.548472e+01 
6.405550e+00 3.509599e+01 
6.440220e+00 3.471351e+01 
6.475480e+00 3.433032e+01 
6.510150e+00 3.395898e+01 
6.544810e+00 3.359282e+01 
6.580080e+00 3.322569e+01 
6.614750e+00 3.287010e+01 
6.649410e+00 3.252115e+01 
6.684080e+00 3.217739e+01 
6.719340e+00 3.183282e+01 
6.754010e+00 3.149874e+01 
6.788680e+00 3.116906e+01 
6.823940e+00 3.083854e+01 
6.859800e+00 3.050725e+01 
6.894470e+00 3.019122e+01 
6.929140e+00 2.987948e+01 
6.963800e+00 2.957216e+01 
6.999070e+00 2.926388e+01 
7.033730e+00 2.896644e+01 
7.068400e+00 2.867299e+01 
7.103660e+00 2.837865e+01 
7.138330e+00 2.809308e+01 
7.173600e+00 2.780630e+01 
7.208260e+00 2.752831e+01 
7.243530e+00 2.724925e+01 
7.277600e+00 2.698395e+01 
7.312860e+00 2.671364e+01 
7.348120e+00 2.644696e+01 
7.382790e+00 2.618822e+01 
7.417460e+00 2.593267e+01 
7.452720e+00 2.567608e+01 
7.487390e+00 2.542709e+01 
7.522650e+00 2.517717e+01 
7.557320e+00 2.493450e+01 
7.591990e+00 2.469488e+01 
7.627250e+00 2.445434e+01 
7.662510e+00 2.421691e+01 
7.697180e+00 2.398629e+01 
7.731850e+00 2.375853e+01 
7.766510e+00 2.353370e+01 
7.801180e+00 2.331163e+01 
7.836440e+00 2.308934e+01 
7.871110e+00 2.287394e+01 
7.906380e+00 2.265755e+01 
7.941040e+00 2.244755e+01 
7.976310e+00 2.223588e+01 
8.011570e+00 2.202617e+01 
8.046240e+00 2.182250e+01 
8.080900e+00 2.162139e+01 
8.115570e+00 2.142286e+01 
8.150830e+00 2.122422e+01 
8.185500e+00 2.103127e+01 
8.220770e+00 2.083736e+01 
8.255430e+00 2.064910e+01 
8.290100e+00 2.046393e+01 
8.324770e+00 2.028105e+01 
8.359430e+00 2.010038e+01 
8.394700e+00 1.991871e+01 
8.429960e+00 1.973872e+01 
8.464630e+00 1.956327e+01 
8.499890e+00 1.938694e+01 
8.534560e+00 1.921560e+01 
8.569200e+00 1.904638e+01 
