# Parameters:
# omega_b = 0.022270, omega_m = 0.135000, n_s = 0.968100, h = 67.900000, w = -1.000000, sigma_8 = 0.815400
# z = 0.000000
#
# k[1/Mpc] # P(k):
8.694000e-04 1.769030e+04 
2.077466e-03 3.776762e+04 
3.285532e-03 5.332715e+04 
4.493598e-03 6.515199e+04 
5.701664e-03 7.380694e+04 
6.909730e-03 7.982509e+04 
8.117797e-03 8.379638e+04 
9.325863e-03 8.602404e+04 
1.053393e-02 8.680892e+04 
1.174199e-02 8.642823e+04 
1.295006e-02 8.505910e+04 
1.415813e-02 8.294245e+04 
1.536619e-02 8.027925e+04 
1.657426e-02 7.718482e+04 
1.778233e-02 7.370188e+04 
1.899039e-02 7.005816e+04 
2.019846e-02 6.652019e+04 
2.140652e-02 6.317016e+04 
2.261459e-02 5.997827e+04 
2.382266e-02 5.696829e+04 
2.503072e-02 5.416906e+04 
2.623879e-02 5.159372e+04 
2.744685e-02 4.924553e+04 
2.865492e-02 4.712329e+04 
2.986299e-02 4.521498e+04 
3.100100e-02 4.360749e+04 
3.220400e-02 4.208808e+04 
3.288100e-02 4.130993e+04 
3.424300e-02 3.989036e+04 
3.555100e-02 3.869172e+04 
3.686000e-02 3.761658e+04 
3.795000e-02 3.680261e+04 
3.929100e-02 3.588485e+04 
4.039800e-02 3.517433e+04 
4.164000e-02 3.440587e+04 
4.294400e-02 3.361073e+04 
4.415000e-02 3.289110e+04 
4.542900e-02 3.210649e+04 
4.660900e-02 3.137377e+04 
4.782300e-02 3.058649e+04 
4.892900e-02 2.985367e+04 
5.031200e-02 2.891098e+04 
5.155900e-02 2.803793e+04 
5.238100e-02 2.745541e+04 
5.378200e-02 2.645795e+04 
5.513400e-02 2.548919e+04 
5.627600e-02 2.468068e+04 
5.735300e-02 2.393403e+04 
5.870100e-02 2.302177e+04 
5.988700e-02 2.225139e+04 
6.113500e-02 2.147816e+04 
6.225900e-02 2.081743e+04 
6.340100e-02 2.018244e+04 
6.480200e-02 1.945815e+04 
6.601100e-02 1.888410e+04 
6.725500e-02 1.834123e+04 
6.829100e-02 1.793037e+04 
6.958600e-02 1.745717e+04 
7.071100e-02 1.708389e+04 
7.192300e-02 1.671684e+04 
7.307400e-02 1.639960e+04 
7.412300e-02 1.613424e+04 
7.550400e-02 1.581714e+04 
7.663100e-02 1.557805e+04 
7.791200e-02 1.532548e+04 
7.912700e-02 1.510078e+04 
8.027600e-02 1.489474e+04 
8.138400e-02 1.470035e+04 
8.272200e-02 1.446858e+04 
8.406100e-02 1.423611e+04 
8.534100e-02 1.400838e+04 
8.653800e-02 1.378738e+04 
8.759800e-02 1.358845e+04 
8.900300e-02 1.331829e+04 
9.009000e-02 1.310145e+04 
9.113300e-02 1.288881e+04 
9.239600e-02 1.262951e+04 
9.358000e-02 1.238175e+04 
9.496100e-02 1.209270e+04 
9.608400e-02 1.185981e+04 
9.727500e-02 1.161590e+04 
9.852600e-02 1.136346e+04 
9.973800e-02 1.112704e+04 
1.009000e-01 1.090762e+04 
1.020900e-01 1.069206e+04 
1.034000e-01 1.046600e+04 
1.046000e-01 1.026962e+04 
1.057200e-01 1.009839e+04 
1.069100e-01 9.924543e+03 
1.082500e-01 9.744715e+03 
1.093900e-01 9.600476e+03 
1.105400e-01 9.461274e+03 
1.116900e-01 9.334005e+03 
1.129600e-01 9.199693e+03 
1.142000e-01 9.077802e+03 
1.153300e-01 8.971503e+03 
1.166400e-01 8.854504e+03 
1.177800e-01 8.755491e+03 
1.190000e-01 8.652201e+03 
1.201200e-01 8.559758e+03 
1.213400e-01 8.461462e+03 
1.227100e-01 8.349982e+03 
1.238900e-01 8.255443e+03 
1.250700e-01 8.160014e+03 
1.263200e-01 8.059638e+03 
1.275500e-01 7.959516e+03 
1.287500e-01 7.862687e+03 
1.299900e-01 7.762701e+03 
1.311300e-01 7.670981e+03 
1.323500e-01 7.572200e+03 
1.335900e-01 7.473421e+03 
1.347100e-01 7.385261e+03 
1.359800e-01 7.287043e+03 
1.372100e-01 7.193213e+03 
1.384300e-01 7.102076e+03 
1.395700e-01 7.018437e+03 
1.407700e-01 6.932232e+03 
1.420300e-01 6.843892e+03 
1.432800e-01 6.758153e+03 
1.444500e-01 6.681555e+03 
1.456300e-01 6.605839e+03 
1.468900e-01 6.527271e+03 
1.480500e-01 6.456579e+03 
1.491700e-01 6.390324e+03 
1.503800e-01 6.321020e+03 
1.516400e-01 6.250621e+03 
1.528200e-01 6.187408e+03 
1.540200e-01 6.124340e+03 
1.551900e-01 6.065168e+03 
1.564300e-01 6.003921e+03 
1.576600e-01 5.944430e+03 
1.588700e-01 5.887124e+03 
1.600900e-01 5.830458e+03 
1.612700e-01 5.777397e+03 
1.625400e-01 5.721342e+03 
1.637600e-01 5.668085e+03 
1.649500e-01 5.616828e+03 
1.662200e-01 5.563074e+03 
1.674000e-01 5.513795e+03 
1.685000e-01 5.468618e+03 
1.697500e-01 5.417839e+03 
1.710300e-01 5.366471e+03 
1.722200e-01 5.319554e+03 
1.734400e-01 5.271536e+03 
1.746400e-01 5.225076e+03 
1.758700e-01 5.178034e+03 
1.770900e-01 5.131704e+03 
1.782700e-01 5.087632e+03 
1.794600e-01 5.043569e+03 
1.807000e-01 4.998186e+03 
1.819100e-01 4.954631e+03 
1.830100e-01 4.915808e+03 
1.842200e-01 4.873787e+03 
1.855000e-01 4.830086e+03 
1.867000e-01 4.790276e+03 
1.879200e-01 4.750441e+03 
1.890900e-01 4.712832e+03 
1.902800e-01 4.675170e+03 
1.915200e-01 4.636536e+03 
1.926900e-01 4.600787e+03 
1.939000e-01 4.564845e+03 
1.951700e-01 4.527707e+03 
1.963100e-01 4.495011e+03 
1.975100e-01 4.461464e+03 
1.987800e-01 4.426500e+03 
2.000100e-01 4.393197e+03 
2.012500e-01 4.360228e+03 
2.023400e-01 4.331655e+03 
2.036100e-01 4.298858e+03 
2.048900e-01 4.266395e+03 
2.060400e-01 4.237650e+03 
2.072200e-01 4.208569e+03 
2.084200e-01 4.179510e+03 
2.096900e-01 4.149200e+03 
2.109200e-01 4.120269e+03 
2.121100e-01 4.092519e+03 
2.132700e-01 4.065826e+03 
2.145200e-01 4.037457e+03 
2.157200e-01 4.010564e+03 
2.168800e-01 3.984896e+03 
2.180700e-01 3.958911e+03 
2.193400e-01 3.931553e+03 
2.206000e-01 3.904778e+03 
2.217500e-01 3.880666e+03 
2.229500e-01 3.855830e+03 
2.241400e-01 3.831639e+03 
2.253500e-01 3.807366e+03 
2.264900e-01 3.784787e+03 
2.277100e-01 3.761249e+03 
2.289900e-01 3.737239e+03 
2.301500e-01 3.715762e+03 
2.313600e-01 3.693644e+03 
2.325600e-01 3.672224e+03 
2.337700e-01 3.650898e+03 
2.350000e-01 3.629497e+03 
2.362000e-01 3.609200e+03 
2.374100e-01 3.589366e+03 
2.386500e-01 3.569298e+03 
2.399100e-01 3.549169e+03 
2.410400e-01 3.531481e+03 
2.422500e-01 3.512785e+03 
2.435000e-01 3.493712e+03 
2.447300e-01 3.475319e+03 
2.458700e-01 3.459036e+03 
2.470600e-01 3.442238e+03 
2.483300e-01 3.424532e+03 
2.495600e-01 3.407578e+03 
2.507600e-01 3.391210e+03 
2.519600e-01 3.375036e+03 
2.532200e-01 3.358260e+03 
2.543700e-01 3.343125e+03 
2.555500e-01 3.327769e+03 
2.568000e-01 3.311694e+03 
2.580100e-01 3.296320e+03 
2.592400e-01 3.280799e+03 
2.604100e-01 3.266171e+03 
2.616100e-01 3.251338e+03 
2.628400e-01 3.236311e+03 
2.640600e-01 3.221437e+03 
2.652200e-01 3.207398e+03 
2.664300e-01 3.192916e+03 
2.676500e-01 3.178480e+03 
2.688400e-01 3.164210e+03 
2.700700e-01 3.149408e+03 
2.712400e-01 3.135482e+03 
2.724800e-01 3.120885e+03 
2.736700e-01 3.106944e+03 
2.748800e-01 3.092831e+03 
2.761000e-01 3.078756e+03 
2.773200e-01 3.064836e+03 
2.785400e-01 3.050923e+03 
2.797000e-01 3.037534e+03 
2.808900e-01 3.023941e+03 
2.821400e-01 3.009815e+03 
2.833900e-01 2.995834e+03 
2.845500e-01 2.982798e+03 
2.857800e-01 2.969119e+03 
2.870300e-01 2.955365e+03 
2.882100e-01 2.942517e+03 
2.893900e-01 2.929596e+03 
2.906300e-01 2.916048e+03 
2.918900e-01 2.902427e+03 
2.930500e-01 2.890015e+03 
2.942500e-01 2.877304e+03 
2.954200e-01 2.865039e+03 
2.966500e-01 2.852273e+03 
2.978900e-01 2.839535e+03 
2.990400e-01 2.827838e+03 
3.002700e-01 2.815269e+03 
3.015100e-01 2.802637e+03 
3.026800e-01 2.790835e+03 
3.038500e-01 2.779145e+03 
3.050300e-01 2.767468e+03 
3.062600e-01 2.755479e+03 
3.075000e-01 2.743512e+03 
3.087000e-01 2.732044e+03 
3.099100e-01 2.720592e+03 
3.111200e-01 2.709211e+03 
3.123100e-01 2.698059e+03 
3.135300e-01 2.686734e+03 
3.147300e-01 2.675701e+03 
3.159900e-01 2.664227e+03 
3.171800e-01 2.653446e+03 
3.183700e-01 2.642733e+03 
3.196300e-01 2.631496e+03 
3.208400e-01 2.620808e+03 
3.220300e-01 2.610394e+03 
3.232000e-01 2.600278e+03 
3.244300e-01 2.589753e+03 
3.256700e-01 2.579241e+03 
3.269200e-01 2.568745e+03 
3.280800e-01 2.559093e+03 
3.292500e-01 2.549458e+03 
3.304800e-01 2.539424e+03 
3.317100e-01 2.529483e+03 
3.328900e-01 2.520031e+03 
3.340700e-01 2.510662e+03 
3.353600e-01 2.500538e+03 
3.365300e-01 2.491449e+03 
3.377100e-01 2.482361e+03 
3.389200e-01 2.473123e+03 
3.401600e-01 2.463741e+03 
3.413700e-01 2.454678e+03 
3.425300e-01 2.446072e+03 
3.437700e-01 2.436952e+03 
3.449800e-01 2.428131e+03 
3.461800e-01 2.419459e+03 
3.473600e-01 2.411010e+03 
3.485800e-01 2.402367e+03 
3.498100e-01 2.393728e+03 
3.510200e-01 2.385304e+03 
3.522000e-01 2.377157e+03 
3.533900e-01 2.369011e+03 
3.546400e-01 2.360622e+03 
3.558400e-01 2.352643e+03 
3.570600e-01 2.344600e+03 
3.582700e-01 2.336691e+03 
3.595000e-01 2.328719e+03 
3.607100e-01 2.320900e+03 
3.618900e-01 2.313305e+03 
3.631200e-01 2.305453e+03 
3.643200e-01 2.297857e+03 
3.655500e-01 2.290135e+03 
3.667300e-01 2.282789e+03 
3.679500e-01 2.275247e+03 
3.691900e-01 2.267645e+03 
3.703600e-01 2.260531e+03 
3.715700e-01 2.253233e+03 
3.727700e-01 2.246053e+03 
3.739900e-01 2.238824e+03 
3.752000e-01 2.231733e+03 
3.763900e-01 2.224814e+03 
3.775800e-01 2.217950e+03 
3.788200e-01 2.210855e+03 
3.800300e-01 2.203988e+03 
3.812100e-01 2.197333e+03 
3.824200e-01 2.190555e+03 
3.836100e-01 2.183941e+03 
3.848600e-01 2.177049e+03 
3.860400e-01 2.170595e+03 
3.872400e-01 2.164081e+03 
3.884600e-01 2.157525e+03 
3.896500e-01 2.151185e+03 
3.908700e-01 2.144735e+03 
3.920600e-01 2.138493e+03 
3.933100e-01 2.131988e+03 
3.945300e-01 2.125688e+03 
3.957200e-01 2.119528e+03 
3.969300e-01 2.113293e+03 
3.981700e-01 2.106953e+03 
3.993500e-01 2.100966e+03 
4.094840e-01 2.051360e+03 
4.272360e-01 1.970396e+03 
4.454600e-01 1.893846e+03 
4.630560e-01 1.825670e+03 
4.804610e-01 1.762426e+03 
4.980690e-01 1.703120e+03 
5.159230e-01 1.646466e+03 
5.317440e-01 1.599480e+03 
5.489640e-01 1.551004e+03 
5.671990e-01 1.502593e+03 
5.838690e-01 1.460896e+03 
6.018840e-01 1.418288e+03 
6.202330e-01 1.376824e+03 
6.379250e-01 1.339251e+03 
6.545410e-01 1.305388e+03 
6.714560e-01 1.272502e+03 
6.892080e-01 1.239389e+03 
7.066010e-01 1.208512e+03 
7.240540e-01 1.178737e+03 
7.420450e-01 1.149055e+03 
7.593780e-01 1.121805e+03 
7.764720e-01 1.095707e+03 
7.942840e-01 1.069497e+03 
8.116170e-01 1.045033e+03 
8.288310e-01 1.021436e+03 
8.462240e-01 9.984577e+02 
8.631980e-01 9.766583e+02 
8.810700e-01 9.544754e+02 
8.989410e-01 9.330285e+02 
9.166330e-01 9.125269e+02 
9.345640e-01 8.922682e+02 
9.515980e-01 8.736390e+02 
9.688720e-01 8.552866e+02 
9.865640e-01 8.370186e+02 
1.031870e+00 7.927268e+02 
1.063490e+00 7.637659e+02 
1.097920e+00 7.336767e+02 
1.134370e+00 7.036775e+02 
1.167730e+00 6.778058e+02 
1.203830e+00 6.511164e+02 
1.240470e+00 6.256088e+02 
1.275790e+00 6.022285e+02 
1.309140e+00 5.812552e+02 
1.342970e+00 5.610162e+02 
1.378420e+00 5.408425e+02 
1.413200e+00 5.220677e+02 
1.448110e+00 5.041131e+02 
1.484090e+00 4.864938e+02 
1.518820e+00 4.702900e+02 
1.552880e+00 4.551870e+02 
1.588630e+00 4.400177e+02 
1.623230e+00 4.259835e+02 
1.657720e+00 4.126459e+02 
1.692450e+00 3.998144e+02 
1.726400e+00 3.878026e+02 
1.762200e+00 3.757392e+02 
1.797880e+00 3.641752e+02 
1.833270e+00 3.532441e+02 
1.869070e+00 3.426420e+02 
1.903200e+00 3.329429e+02 
1.937740e+00 3.235050e+02 
1.973190e+00 3.142200e+02 
2.007440e+00 3.056401e+02 
2.042160e+00 2.972689e+02 
2.077900e+00 2.889766e+02 
2.112390e+00 2.812737e+02 
2.146220e+00 2.740405e+02 
2.181600e+00 2.666998e+02 
2.216930e+00 2.596676e+02 
2.250760e+00 2.532102e+02 
2.286500e+00 2.466299e+02 
2.321770e+00 2.403432e+02 
2.355950e+00 2.344929e+02 
2.391280e+00 2.286468e+02 
2.426240e+00 2.230582e+02 
2.460670e+00 2.177513e+02 
2.495640e+00 2.125576e+02 
2.531080e+00 2.074300e+02 
2.566220e+00 2.025368e+02 
2.600830e+00 1.978932e+02 
2.635080e+00 1.934603e+02 
2.670340e+00 1.890023e+02 
2.705970e+00 1.846599e+02 
2.740040e+00 1.806467e+02 
2.774520e+00 1.767022e+02 
2.809730e+00 1.728141e+02 
2.844390e+00 1.691095e+02 
2.879960e+00 1.654175e+02 
2.914860e+00 1.619009e+02 
2.949410e+00 1.585216e+02 
2.984440e+00 1.551899e+02 
3.019760e+00 1.519405e+02 
3.054730e+00 1.488239e+02 
3.089030e+00 1.458484e+02 
3.124060e+00 1.429027e+02 
3.159560e+00 1.400115e+02 
3.194710e+00 1.372247e+02 
3.229010e+00 1.345796e+02 
3.263320e+00 1.320003e+02 
3.297930e+00 1.294731e+02 
3.332830e+00 1.270012e+02 
3.368040e+00 1.245721e+02 
3.403300e+00 1.222034e+02 
3.438450e+00 1.199130e+02 
3.473060e+00 1.177194e+02 
3.508440e+00 1.155301e+02 
3.543110e+00 1.134402e+02 
3.577470e+00 1.114182e+02 
3.613040e+00 1.093807e+02 
3.648120e+00 1.074284e+02 
3.682910e+00 1.055395e+02 
3.718050e+00 1.036764e+02 
3.753320e+00 1.018560e+02 
3.787980e+00 1.001152e+02 
3.822290e+00 9.843195e+01 
3.857020e+00 9.676672e+01 
3.891920e+00 9.513554e+01 
3.926650e+00 9.355472e+01 
3.961970e+00 9.198405e+01 
3.997360e+00 9.044510e+01 
4.031670e+00 8.898883e+01 
4.066330e+00 8.755613e+01 
4.101420e+00 8.613890e+01 
4.136200e+00 8.477115e+01 
4.170810e+00 8.344043e+01 
4.206250e+00 8.210593e+01 
4.241580e+00 8.080497e+01 
4.276300e+00 7.955276e+01 
4.310970e+00 7.832840e+01 
4.346120e+00 7.711585e+01 
4.380600e+00 7.595500e+01 
4.414730e+00 7.483014e+01 
4.450350e+00 7.368586e+01 
4.485320e+00 7.258628e+01 
4.519810e+00 7.152275e+01 
4.555430e+00 7.044650e+01 
4.590870e+00 6.939937e+01 
4.625480e+00 6.840036e+01 
4.659910e+00 6.742644e+01 
4.695230e+00 6.645123e+01 
4.729960e+00 6.551208e+01 
4.764450e+00 6.459697e+01 
4.799530e+00 6.368322e+01 
4.834910e+00 6.277983e+01 
4.869700e+00 6.191201e+01 
4.904370e+00 6.106428e+01 
4.939450e+00 6.022248e+01 
4.973940e+00 5.940932e+01 
5.008430e+00 5.861138e+01 
5.043810e+00 5.781042e+01 
5.078840e+00 5.703358e+01 
5.113500e+00 5.627918e+01 
5.148890e+00 5.552619e+01 
5.184210e+00 5.478875e+01 
5.219060e+00 5.407404e+01 
5.253660e+00 5.337615e+01 
5.288570e+00 5.268461e+01 
5.323420e+00 5.200800e+01 
5.358440e+00 5.134173e+01 
5.393590e+00 5.068484e+01 
5.428310e+00 5.004917e+01 
5.462800e+00 4.942955e+01 
5.497640e+00 4.881440e+01 
5.532670e+00 4.820559e+01 
5.567280e+00 4.761406e+01 
5.602000e+00 4.703067e+01 
5.637270e+00 4.645012e+01 
5.672410e+00 4.588198e+01 
5.707020e+00 4.533175e+01 
5.742040e+00 4.478628e+01 
5.777430e+00 4.424464e+01 
5.812210e+00 4.372111e+01 
5.846820e+00 4.320772e+01 
5.881610e+00 4.269978e+01 
5.916510e+00 4.219845e+01 
5.951600e+00 4.170198e+01 
5.986560e+00 4.121505e+01 
6.021830e+00 4.073168e+01 
6.056490e+00 4.026527e+01 
6.091160e+00 3.980692e+01 
6.125830e+00 3.935571e+01 
6.161090e+00 3.890456e+01 
6.195760e+00 3.846912e+01 
6.230420e+00 3.804046e+01 
6.265690e+00 3.761094e+01 
6.300950e+00 3.718761e+01 
6.335620e+00 3.677769e+01 
6.370880e+00 3.636710e+01 
6.405550e+00 3.597060e+01 
6.440220e+00 3.558044e+01 
6.475480e+00 3.518954e+01 
6.510150e+00 3.481071e+01 
6.544810e+00 3.443713e+01 
6.580080e+00 3.406257e+01 
6.614750e+00 3.369976e+01 
6.649410e+00 3.334365e+01 
6.684080e+00 3.299282e+01 
6.719340e+00 3.264115e+01 
6.754010e+00 3.230015e+01 
6.788680e+00 3.196358e+01 
6.823940e+00 3.162614e+01 
6.859800e+00 3.128791e+01 
6.894470e+00 3.096519e+01 
6.929140e+00 3.064685e+01 
6.963800e+00 3.033301e+01 
6.999070e+00 3.001817e+01 
7.033730e+00 2.971435e+01 
7.068400e+00 2.941459e+01 
7.103660e+00 2.911390e+01 
7.138330e+00 2.882216e+01 
7.173600e+00 2.852915e+01 
7.208260e+00 2.824511e+01 
7.243530e+00 2.795997e+01 
7.277600e+00 2.768885e+01 
7.312860e+00 2.741257e+01 
7.348120e+00 2.713999e+01 
7.382790e+00 2.687552e+01 
7.417460e+00 2.661428e+01 
7.452720e+00 2.635196e+01 
7.487390e+00 2.609740e+01 
7.522650e+00 2.584189e+01 
7.557320e+00 2.559371e+01 
7.591990e+00 2.534865e+01 
7.627250e+00 2.510263e+01 
7.662510e+00 2.485979e+01 
7.697180e+00 2.462387e+01 
7.731850e+00 2.439086e+01 
7.766510e+00 2.416085e+01 
7.801180e+00 2.393365e+01 
7.836440e+00 2.370619e+01 
7.871110e+00 2.348577e+01 
7.906380e+00 2.326433e+01 
7.941040e+00 2.304943e+01 
7.976310e+00 2.283277e+01 
8.011570e+00 2.261807e+01 
8.046240e+00 2.240956e+01 
8.080900e+00 2.220364e+01 
8.115570e+00 2.200039e+01 
8.150830e+00 2.179699e+01 
8.185500e+00 2.159943e+01 
8.220770e+00 2.140087e+01 
8.255430e+00 2.120810e+01 
8.290100e+00 2.101842e+01 
8.324770e+00 2.083109e+01 
8.359430e+00 2.064602e+01 
8.394700e+00 2.045992e+01 
8.429960e+00 2.027551e+01 
8.464630e+00 2.009574e+01 
8.499890e+00 1.991506e+01 
8.534560e+00 1.973948e+01 
8.569200e+00 1.956608e+01 
