# Parameters:
# omega_b = 0.022270, omega_m = 0.123000, n_s = 0.968100, h = 67.900000, w = -1.000000, sigma_8 = 0.815400
# z = 0.000000
#
# k[1/Mpc] # P(k):
8.694000e-04 2.357742e+04 
2.077466e-03 4.976213e+04 
3.285532e-03 6.949970e+04 
4.493598e-03 8.399001e+04 
5.701664e-03 9.415603e+04 
6.909730e-03 1.008077e+05 
8.117797e-03 1.047893e+05 
9.325863e-03 1.065383e+05 
1.053393e-02 1.064788e+05 
1.174199e-02 1.049950e+05 
1.295006e-02 1.023319e+05 
1.415813e-02 9.881228e+04 
1.536619e-02 9.470242e+04 
1.657426e-02 9.008709e+04 
1.778233e-02 8.481127e+04 
1.899039e-02 7.932074e+04 
2.019846e-02 7.438390e+04 
2.140652e-02 7.005543e+04 
2.261459e-02 6.608568e+04 
2.382266e-02 6.241602e+04 
2.503072e-02 5.905764e+04 
2.623879e-02 5.601516e+04 
2.744685e-02 5.328729e+04 
2.865492e-02 5.085736e+04 
2.986299e-02 4.870204e+04 
3.100100e-02 4.691097e+04 
3.220400e-02 4.523716e+04 
3.288100e-02 4.438734e+04 
3.424300e-02 4.284547e+04 
3.555100e-02 4.154767e+04 
3.686000e-02 4.038186e+04 
3.795000e-02 3.949388e+04 
3.929100e-02 3.847948e+04 
4.039800e-02 3.768159e+04 
4.164000e-02 3.680672e+04 
4.294400e-02 3.588284e+04 
4.415000e-02 3.503697e+04 
4.542900e-02 3.410514e+04 
4.660900e-02 3.323251e+04 
4.782300e-02 3.229463e+04 
4.892900e-02 3.142574e+04 
5.031200e-02 3.031638e+04 
5.155900e-02 2.930011e+04 
5.238100e-02 2.862856e+04 
5.378200e-02 2.749059e+04 
5.513400e-02 2.640210e+04 
5.627600e-02 2.550585e+04 
5.735300e-02 2.468760e+04 
5.870100e-02 2.370043e+04 
5.988700e-02 2.287668e+04 
6.113500e-02 2.205912e+04 
6.225900e-02 2.136835e+04 
6.340100e-02 2.071114e+04 
6.480200e-02 1.996827e+04 
6.601100e-02 1.938613e+04 
6.725500e-02 1.884058e+04 
6.829100e-02 1.843161e+04 
6.958600e-02 1.796346e+04 
7.071100e-02 1.759685e+04 
7.192300e-02 1.723819e+04 
7.307400e-02 1.692939e+04 
7.412300e-02 1.667152e+04 
7.550400e-02 1.636301e+04 
7.663100e-02 1.612945e+04 
7.791200e-02 1.587981e+04 
7.912700e-02 1.565379e+04 
8.027600e-02 1.544271e+04 
8.138400e-02 1.523999e+04 
8.272200e-02 1.499300e+04 
8.406100e-02 1.473975e+04 
8.534100e-02 1.448581e+04 
8.653800e-02 1.423557e+04 
8.759800e-02 1.400849e+04 
8.900300e-02 1.369797e+04 
9.009000e-02 1.344807e+04 
9.113300e-02 1.320323e+04 
9.239600e-02 1.290559e+04 
9.358000e-02 1.262315e+04 
9.496100e-02 1.229720e+04 
9.608400e-02 1.203750e+04 
9.727500e-02 1.176798e+04 
9.852600e-02 1.149558e+04 
9.973800e-02 1.124367e+04 
1.009000e-01 1.101255e+04 
1.020900e-01 1.079199e+04 
1.034000e-01 1.056349e+04 
1.046000e-01 1.036794e+04 
1.057200e-01 1.020164e+04 
1.069100e-01 1.003412e+04 
1.082500e-01 9.864329e+03 
1.093900e-01 9.729472e+03 
1.105400e-01 9.600115e+03 
1.116900e-01 9.482779e+03 
1.129600e-01 9.359008e+03 
1.142000e-01 9.246193e+03 
1.153300e-01 9.147079e+03 
1.166400e-01 9.036834e+03 
1.177800e-01 8.941524e+03 
1.190000e-01 8.841156e+03 
1.201200e-01 8.748425e+03 
1.213400e-01 8.649302e+03 
1.227100e-01 8.532688e+03 
1.238900e-01 8.433037e+03 
1.250700e-01 8.330071e+03 
1.263200e-01 8.221090e+03 
1.275500e-01 8.110908e+03 
1.287500e-01 8.003919e+03 
1.299900e-01 7.892771e+03 
1.311300e-01 7.790925e+03 
1.323500e-01 7.681398e+03 
1.335900e-01 7.572332e+03 
1.347100e-01 7.475573e+03 
1.359800e-01 7.368408e+03 
1.372100e-01 7.267258e+03 
1.384300e-01 7.169647e+03 
1.395700e-01 7.081541e+03 
1.407700e-01 6.990949e+03 
1.420300e-01 6.900203e+03 
1.432800e-01 6.812137e+03 
1.444500e-01 6.735325e+03 
1.456300e-01 6.659398e+03 
1.468900e-01 6.581665e+03 
1.480500e-01 6.512040e+03 
1.491700e-01 6.447115e+03 
1.503800e-01 6.379631e+03 
1.516400e-01 6.311105e+03 
1.528200e-01 6.249696e+03 
1.540200e-01 6.188426e+03 
1.551900e-01 6.130688e+03 
1.564300e-01 6.070862e+03 
1.576600e-01 6.012438e+03 
1.588700e-01 5.955782e+03 
1.600900e-01 5.899714e+03 
1.612700e-01 5.846414e+03 
1.625400e-01 5.790106e+03 
1.637600e-01 5.736098e+03 
1.649500e-01 5.683820e+03 
1.662200e-01 5.628889e+03 
1.674000e-01 5.577939e+03 
1.685000e-01 5.531229e+03 
1.697500e-01 5.478491e+03 
1.710300e-01 5.424908e+03 
1.722200e-01 5.375967e+03 
1.734400e-01 5.325653e+03 
1.746400e-01 5.276963e+03 
1.758700e-01 5.227664e+03 
1.770900e-01 5.179111e+03 
1.782700e-01 5.132927e+03 
1.794600e-01 5.086863e+03 
1.807000e-01 5.039493e+03 
1.819100e-01 4.994035e+03 
1.830100e-01 4.953741e+03 
1.842200e-01 4.910169e+03 
1.855000e-01 4.864871e+03 
1.867000e-01 4.823935e+03 
1.879200e-01 4.782973e+03 
1.890900e-01 4.744357e+03 
1.902800e-01 4.705983e+03 
1.915200e-01 4.666618e+03 
1.926900e-01 4.630263e+03 
1.939000e-01 4.593939e+03 
1.951700e-01 4.556408e+03 
1.963100e-01 4.523421e+03 
1.975100e-01 4.489728e+03 
1.987800e-01 4.454611e+03 
2.000100e-01 4.421198e+03 
2.012500e-01 4.388198e+03 
2.023400e-01 4.359598e+03 
2.036100e-01 4.326772e+03 
2.048900e-01 4.294285e+03 
2.060400e-01 4.265518e+03 
2.072200e-01 4.236409e+03 
2.084200e-01 4.207240e+03 
2.096900e-01 4.176815e+03 
2.109200e-01 4.147775e+03 
2.121100e-01 4.119783e+03 
2.132700e-01 4.092850e+03 
2.145200e-01 4.064226e+03 
2.157200e-01 4.036979e+03 
2.168800e-01 4.010921e+03 
2.180700e-01 3.984543e+03 
2.193400e-01 3.956713e+03 
2.206000e-01 3.929370e+03 
2.217500e-01 3.904746e+03 
2.229500e-01 3.879383e+03 
2.241400e-01 3.854562e+03 
2.253500e-01 3.829654e+03 
2.264900e-01 3.806484e+03 
2.277100e-01 3.782307e+03 
2.289900e-01 3.757619e+03 
2.301500e-01 3.735535e+03 
2.313600e-01 3.712791e+03 
2.325600e-01 3.690801e+03 
2.337700e-01 3.668907e+03 
2.350000e-01 3.646936e+03 
2.362000e-01 3.626145e+03 
2.374100e-01 3.605888e+03 
2.386500e-01 3.585391e+03 
2.399100e-01 3.564831e+03 
2.410400e-01 3.546907e+03 
2.422500e-01 3.527980e+03 
2.435000e-01 3.508671e+03 
2.447300e-01 3.490085e+03 
2.458700e-01 3.473771e+03 
2.470600e-01 3.456941e+03 
2.483300e-01 3.439201e+03 
2.495600e-01 3.422278e+03 
2.507600e-01 3.406026e+03 
2.519600e-01 3.389968e+03 
2.532200e-01 3.373312e+03 
2.543700e-01 3.358334e+03 
2.555500e-01 3.343170e+03 
2.568000e-01 3.327298e+03 
2.580100e-01 3.312117e+03 
2.592400e-01 3.296804e+03 
2.604100e-01 3.282377e+03 
2.616100e-01 3.267749e+03 
2.628400e-01 3.252930e+03 
2.640600e-01 3.238229e+03 
2.652200e-01 3.224340e+03 
2.664300e-01 3.210014e+03 
2.676500e-01 3.195734e+03 
2.688400e-01 3.181565e+03 
2.700700e-01 3.166836e+03 
2.712400e-01 3.152980e+03 
2.724800e-01 3.138456e+03 
2.736700e-01 3.124545e+03 
2.748800e-01 3.110424e+03 
2.761000e-01 3.096342e+03 
2.773200e-01 3.082413e+03 
2.785400e-01 3.068471e+03 
2.797000e-01 3.055005e+03 
2.808900e-01 3.041335e+03 
2.821400e-01 3.027129e+03 
2.833900e-01 3.013067e+03 
2.845500e-01 2.999911e+03 
2.857800e-01 2.986105e+03 
2.870300e-01 2.972225e+03 
2.882100e-01 2.959258e+03 
2.893900e-01 2.946198e+03 
2.906300e-01 2.932494e+03 
2.918900e-01 2.918715e+03 
2.930500e-01 2.906160e+03 
2.942500e-01 2.893298e+03 
2.954200e-01 2.880876e+03 
2.966500e-01 2.867947e+03 
2.978900e-01 2.855047e+03 
2.990400e-01 2.843201e+03 
3.002700e-01 2.830464e+03 
3.015100e-01 2.817662e+03 
3.026800e-01 2.805701e+03 
3.038500e-01 2.793853e+03 
3.050300e-01 2.782018e+03 
3.062600e-01 2.769870e+03 
3.075000e-01 2.757745e+03 
3.087000e-01 2.746125e+03 
3.099100e-01 2.734521e+03 
3.111200e-01 2.722989e+03 
3.123100e-01 2.711689e+03 
3.135300e-01 2.700215e+03 
3.147300e-01 2.689035e+03 
3.159900e-01 2.677409e+03 
3.171800e-01 2.666487e+03 
3.183700e-01 2.655636e+03 
3.196300e-01 2.644256e+03 
3.208400e-01 2.633430e+03 
3.220300e-01 2.622882e+03 
3.232000e-01 2.612640e+03 
3.244300e-01 2.601985e+03 
3.256700e-01 2.591344e+03 
3.269200e-01 2.580719e+03 
3.280800e-01 2.570947e+03 
3.292500e-01 2.561192e+03 
3.304800e-01 2.551032e+03 
3.317100e-01 2.540965e+03 
3.328900e-01 2.531394e+03 
3.340700e-01 2.521907e+03 
3.353600e-01 2.511657e+03 
3.365300e-01 2.502454e+03 
3.377100e-01 2.493254e+03 
3.389200e-01 2.483901e+03 
3.401600e-01 2.474403e+03 
3.413700e-01 2.465228e+03 
3.425300e-01 2.456517e+03 
3.437700e-01 2.447285e+03 
3.449800e-01 2.438356e+03 
3.461800e-01 2.429578e+03 
3.473600e-01 2.421025e+03 
3.485800e-01 2.412273e+03 
3.498100e-01 2.403526e+03 
3.510200e-01 2.394995e+03 
3.522000e-01 2.386746e+03 
3.533900e-01 2.378497e+03 
3.546400e-01 2.369997e+03 
3.558400e-01 2.361913e+03 
3.570600e-01 2.353763e+03 
3.582700e-01 2.345749e+03 
3.595000e-01 2.337671e+03 
3.607100e-01 2.329747e+03 
3.618900e-01 2.322050e+03 
3.631200e-01 2.314092e+03 
3.643200e-01 2.306393e+03 
3.655500e-01 2.298567e+03 
3.667300e-01 2.291121e+03 
3.679500e-01 2.283474e+03 
3.691900e-01 2.275766e+03 
3.703600e-01 2.268552e+03 
3.715700e-01 2.261151e+03 
3.727700e-01 2.253871e+03 
3.739900e-01 2.246541e+03 
3.752000e-01 2.239350e+03 
3.763900e-01 2.232334e+03 
3.775800e-01 2.225373e+03 
3.788200e-01 2.218179e+03 
3.800300e-01 2.211215e+03 
3.812100e-01 2.204462e+03 
3.824200e-01 2.197581e+03 
3.836100e-01 2.190866e+03 
3.848600e-01 2.183870e+03 
3.860400e-01 2.177317e+03 
3.872400e-01 2.170704e+03 
3.884600e-01 2.164049e+03 
3.896500e-01 2.157613e+03 
3.908700e-01 2.151066e+03 
3.920600e-01 2.144729e+03 
3.933100e-01 2.138125e+03 
3.945300e-01 2.131730e+03 
3.957200e-01 2.125474e+03 
3.969300e-01 2.119143e+03 
3.981700e-01 2.112704e+03 
3.993500e-01 2.106624e+03 
4.094840e-01 2.056231e+03 
4.272360e-01 1.973961e+03 
4.454600e-01 1.896173e+03 
4.630560e-01 1.826925e+03 
4.804610e-01 1.762711e+03 
4.980690e-01 1.702523e+03 
5.159230e-01 1.645046e+03 
5.317440e-01 1.597375e+03 
5.489640e-01 1.548232e+03 
5.671990e-01 1.499146e+03 
5.838690e-01 1.456888e+03 
6.018840e-01 1.413706e+03 
6.202330e-01 1.371707e+03 
6.379250e-01 1.333655e+03 
6.545410e-01 1.299378e+03 
6.714560e-01 1.266107e+03 
6.892080e-01 1.232624e+03 
7.066010e-01 1.201420e+03 
7.240540e-01 1.171357e+03 
7.420450e-01 1.141408e+03 
7.593780e-01 1.113929e+03 
7.764720e-01 1.087640e+03 
7.942840e-01 1.061247e+03 
8.116170e-01 1.036641e+03 
8.288310e-01 1.012926e+03 
8.462240e-01 9.898461e+02 
8.631980e-01 9.679709e+02 
8.810700e-01 9.457305e+02 
8.989410e-01 9.242408e+02 
9.166330e-01 9.037097e+02 
9.345640e-01 8.834442e+02 
9.515980e-01 8.648192e+02 
9.688720e-01 8.464776e+02 
9.865640e-01 8.282385e+02 
1.031870e+00 7.840501e+02 
1.063490e+00 7.551927e+02 
1.097920e+00 7.252410e+02 
1.134370e+00 6.953975e+02 
1.167730e+00 6.696786e+02 
1.203830e+00 6.431713e+02 
1.240470e+00 6.178474e+02 
1.275790e+00 5.946492e+02 
1.309140e+00 5.738512e+02 
1.342970e+00 5.537891e+02 
1.378420e+00 5.337977e+02 
1.413200e+00 5.151995e+02 
1.448110e+00 4.974213e+02 
1.484090e+00 4.799777e+02 
1.518820e+00 4.639406e+02 
1.552880e+00 4.489949e+02 
1.588630e+00 4.339893e+02 
1.623230e+00 4.201075e+02 
1.657720e+00 4.069175e+02 
1.692450e+00 3.942295e+02 
1.726400e+00 3.823555e+02 
1.762200e+00 3.704315e+02 
1.797880e+00 3.590032e+02 
1.833270e+00 3.482001e+02 
1.869070e+00 3.377230e+02 
1.903200e+00 3.281405e+02 
1.937740e+00 3.188169e+02 
1.973190e+00 3.096445e+02 
2.007440e+00 3.011695e+02 
2.042160e+00 2.929020e+02 
2.077900e+00 2.847122e+02 
2.112390e+00 2.771053e+02 
2.146220e+00 2.699629e+02 
2.181600e+00 2.627144e+02 
2.216930e+00 2.557710e+02 
2.250760e+00 2.493956e+02 
2.286500e+00 2.428993e+02 
2.321770e+00 2.366932e+02 
2.355950e+00 2.309181e+02 
2.391280e+00 2.251470e+02 
2.426240e+00 2.196310e+02 
2.460670e+00 2.143931e+02 
2.495640e+00 2.092666e+02 
2.531080e+00 2.042061e+02 
2.566220e+00 1.993773e+02 
2.600830e+00 1.947948e+02 
2.635080e+00 1.904201e+02 
2.670340e+00 1.860210e+02 
2.705970e+00 1.817360e+02 
2.740040e+00 1.777759e+02 
2.774520e+00 1.738840e+02 
2.809730e+00 1.700475e+02 
2.844390e+00 1.663921e+02 
2.879960e+00 1.627495e+02 
2.914860e+00 1.592803e+02 
2.949410e+00 1.559466e+02 
2.984440e+00 1.526597e+02 
3.019760e+00 1.494539e+02 
3.054730e+00 1.463793e+02 
3.089030e+00 1.434443e+02 
3.124060e+00 1.405385e+02 
3.159560e+00 1.376865e+02 
3.194710e+00 1.349376e+02 
3.229010e+00 1.323287e+02 
3.263320e+00 1.297847e+02 
3.297930e+00 1.272922e+02 
3.332830e+00 1.248540e+02 
3.368040e+00 1.224582e+02 
3.403300e+00 1.201222e+02 
3.438450e+00 1.178634e+02 
3.473060e+00 1.157001e+02 
3.508440e+00 1.135409e+02 
3.543110e+00 1.114799e+02 
3.577470e+00 1.094861e+02 
3.613040e+00 1.074770e+02 
3.648120e+00 1.055519e+02 
3.682910e+00 1.036894e+02 
3.718050e+00 1.018523e+02 
3.753320e+00 1.000574e+02 
3.787980e+00 9.834097e+01 
3.822290e+00 9.668145e+01 
3.857020e+00 9.503973e+01 
3.891920e+00 9.343161e+01 
3.926650e+00 9.187316e+01 
3.961970e+00 9.032477e+01 
3.997360e+00 8.880769e+01 
4.031670e+00 8.737217e+01 
4.066330e+00 8.595999e+01 
4.101420e+00 8.456311e+01 
4.136200e+00 8.321485e+01 
4.170810e+00 8.190314e+01 
4.206250e+00 8.058786e+01 
4.241580e+00 7.930570e+01 
4.276300e+00 7.807167e+01 
4.310970e+00 7.686517e+01 
4.346120e+00 7.567031e+01 
4.380600e+00 7.452638e+01 
4.414730e+00 7.341795e+01 
4.450350e+00 7.229041e+01 
4.485320e+00 7.120695e+01 
4.519810e+00 7.015913e+01 
4.555430e+00 6.909886e+01 
4.590870e+00 6.806730e+01 
4.625480e+00 6.708314e+01 
4.659910e+00 6.612373e+01 
4.695230e+00 6.516309e+01 
4.729960e+00 6.423801e+01 
4.764450e+00 6.333663e+01 
4.799530e+00 6.243658e+01 
4.834910e+00 6.154679e+01 
4.869700e+00 6.069218e+01 
4.904370e+00 5.985742e+01 
4.939450e+00 5.902850e+01 
4.973940e+00 5.822779e+01 
5.008430e+00 5.744208e+01 
5.043810e+00 5.665347e+01 
5.078840e+00 5.588866e+01 
5.113500e+00 5.514596e+01 
5.148890e+00 5.440468e+01 
5.184210e+00 5.367873e+01 
5.219060e+00 5.297519e+01 
5.253660e+00 5.228828e+01 
5.288570e+00 5.160764e+01 
5.323420e+00 5.094173e+01 
5.358440e+00 5.028606e+01 
5.393590e+00 4.963964e+01 
5.428310e+00 4.901413e+01 
5.462800e+00 4.840444e+01 
5.497640e+00 4.779916e+01 
5.532670e+00 4.720023e+01 
5.567280e+00 4.661833e+01 
5.602000e+00 4.604447e+01 
5.637270e+00 4.547343e+01 
5.672410e+00 4.491461e+01 
5.707020e+00 4.437343e+01 
5.742040e+00 4.383696e+01 
5.777430e+00 4.330428e+01 
5.812210e+00 4.278944e+01 
5.846820e+00 4.228465e+01 
5.881610e+00 4.178525e+01 
5.916510e+00 4.129238e+01 
5.951600e+00 4.080434e+01 
5.986560e+00 4.032572e+01 
6.021830e+00 3.985061e+01 
6.056490e+00 3.939219e+01 
6.091160e+00 3.894172e+01 
6.125830e+00 3.849828e+01 
6.161090e+00 3.805493e+01 
6.195760e+00 3.762705e+01 
6.230420e+00 3.720584e+01 
6.265690e+00 3.678380e+01 
6.300950e+00 3.636793e+01 
6.335620e+00 3.596525e+01 
6.370880e+00 3.556193e+01 
6.405550e+00 3.517250e+01 
6.440220e+00 3.478933e+01 
6.475480e+00 3.440546e+01 
6.510150e+00 3.403345e+01 
6.544810e+00 3.366662e+01 
6.580080e+00 3.329883e+01 
6.614750e+00 3.294259e+01 
6.649410e+00 3.259300e+01 
6.684080e+00 3.224861e+01 
6.719340e+00 3.190341e+01 
6.754010e+00 3.156871e+01 
6.788680e+00 3.123842e+01 
6.823940e+00 3.090729e+01 
6.859800e+00 3.057538e+01 
6.894470e+00 3.025875e+01 
6.929140e+00 2.994642e+01 
6.963800e+00 2.963852e+01 
6.999070e+00 2.932966e+01 
7.033730e+00 2.903166e+01 
7.068400e+00 2.873764e+01 
7.103660e+00 2.844273e+01 
7.138330e+00 2.815662e+01 
7.173600e+00 2.786929e+01 
7.208260e+00 2.759076e+01 
7.243530e+00 2.731116e+01 
7.277600e+00 2.704535e+01 
7.312860e+00 2.677451e+01 
7.348120e+00 2.650730e+01 
7.382790e+00 2.624806e+01 
7.417460e+00 2.599200e+01 
7.452720e+00 2.573490e+01 
7.487390e+00 2.548542e+01 
7.522650e+00 2.523501e+01 
7.557320e+00 2.499184e+01 
7.591990e+00 2.475175e+01 
7.627250e+00 2.451072e+01 
7.662510e+00 2.427281e+01 
7.697180e+00 2.404172e+01 
7.731850e+00 2.381350e+01 
7.766510e+00 2.358821e+01 
7.801180e+00 2.336569e+01 
7.836440e+00 2.314294e+01 
7.871110e+00 2.292710e+01 
7.906380e+00 2.271027e+01 
7.941040e+00 2.249984e+01 
7.976310e+00 2.228773e+01 
8.011570e+00 2.207757e+01 
8.046240e+00 2.187348e+01 
8.080900e+00 2.167194e+01 
8.115570e+00 2.147300e+01 
8.150830e+00 2.127394e+01 
8.185500e+00 2.108059e+01 
8.220770e+00 2.088627e+01 
8.255430e+00 2.069761e+01 
8.290100e+00 2.051204e+01 
8.324770e+00 2.032877e+01 
8.359430e+00 2.014771e+01 
8.394700e+00 1.996566e+01 
8.429960e+00 1.978527e+01 
8.464630e+00 1.960945e+01 
8.499890e+00 1.943274e+01 
8.534560e+00 1.926102e+01 
8.569200e+00 1.909144e+01 
