# Parameters:
# omega_b = 0.022270, omega_m = 0.121000, n_s = 0.968100, h = 67.900000, w = -1.000000, sigma_8 = 0.815400
# z = 0.000000
#
# k[1/Mpc] # P(k):
8.694000e-04 2.481276e+04 
2.077466e-03 5.224446e+04 
3.285532e-03 7.282927e+04 
4.493598e-03 8.785141e+04 
5.701664e-03 9.831093e+04 
6.909730e-03 1.050760e+05 
8.117797e-03 1.090441e+05 
9.325863e-03 1.106807e+05 
1.053393e-02 1.104357e+05 
1.174199e-02 1.087159e+05 
1.295006e-02 1.057801e+05 
1.415813e-02 1.019681e+05 
1.536619e-02 9.755956e+04 
1.657426e-02 9.263246e+04 
1.778233e-02 8.699170e+04 
1.899039e-02 8.112946e+04 
2.019846e-02 7.591411e+04 
2.140652e-02 7.139165e+04 
2.261459e-02 6.726754e+04 
2.382266e-02 6.346661e+04 
2.503072e-02 5.999650e+04 
2.623879e-02 5.686012e+04 
2.744685e-02 5.405517e+04 
2.865492e-02 5.156214e+04 
2.986299e-02 4.935558e+04 
3.100100e-02 4.752595e+04 
3.220400e-02 4.581942e+04 
3.288100e-02 4.495438e+04 
3.424300e-02 4.338674e+04 
3.555100e-02 4.206859e+04 
3.686000e-02 4.088503e+04 
3.795000e-02 3.998326e+04 
3.929100e-02 3.895188e+04 
4.039800e-02 3.813919e+04 
4.164000e-02 3.724667e+04 
4.294400e-02 3.630170e+04 
4.415000e-02 3.543512e+04 
4.542900e-02 3.447894e+04 
4.660900e-02 3.358295e+04 
4.782300e-02 3.261945e+04 
4.892900e-02 3.172709e+04 
5.031200e-02 3.058842e+04 
5.155900e-02 2.954637e+04 
5.238100e-02 2.885849e+04 
5.378200e-02 2.769423e+04 
5.513400e-02 2.658265e+04 
5.627600e-02 2.566897e+04 
5.735300e-02 2.483611e+04 
5.870100e-02 2.383313e+04 
5.988700e-02 2.299769e+04 
6.113500e-02 2.216998e+04 
6.225900e-02 2.147192e+04 
6.340100e-02 2.080891e+04 
6.480200e-02 2.006067e+04 
6.601100e-02 1.947551e+04 
6.725500e-02 1.892802e+04 
6.829100e-02 1.851830e+04 
6.958600e-02 1.804983e+04 
7.071100e-02 1.768345e+04 
7.192300e-02 1.732536e+04 
7.307400e-02 1.701727e+04 
7.412300e-02 1.676007e+04 
7.550400e-02 1.645234e+04 
7.663100e-02 1.621922e+04 
7.791200e-02 1.596962e+04 
7.912700e-02 1.574306e+04 
8.027600e-02 1.553094e+04 
8.138400e-02 1.532672e+04 
8.272200e-02 1.507722e+04 
8.406100e-02 1.482068e+04 
8.534100e-02 1.456273e+04 
8.653800e-02 1.430808e+04 
8.759800e-02 1.407679e+04 
8.900300e-02 1.376028e+04 
9.009000e-02 1.350547e+04 
9.113300e-02 1.325585e+04 
9.239600e-02 1.295250e+04 
9.358000e-02 1.266485e+04 
9.496100e-02 1.233326e+04 
9.608400e-02 1.206937e+04 
9.727500e-02 1.179578e+04 
9.852600e-02 1.151997e+04 
9.973800e-02 1.126528e+04 
1.009000e-01 1.103190e+04 
1.020900e-01 1.080995e+04 
1.034000e-01 1.058036e+04 
1.046000e-01 1.038425e+04 
1.057200e-01 1.021803e+04 
1.069100e-01 1.005078e+04 
1.082500e-01 9.881780e+03 
1.093900e-01 9.747784e+03 
1.105400e-01 9.619396e+03 
1.116900e-01 9.503150e+03 
1.129600e-01 9.380571e+03 
1.142000e-01 9.268861e+03 
1.153300e-01 9.170647e+03 
1.166400e-01 9.061293e+03 
1.177800e-01 8.966505e+03 
1.190000e-01 8.866573e+03 
1.201200e-01 8.773861e+03 
1.213400e-01 8.674692e+03 
1.227100e-01 8.557448e+03 
1.238900e-01 8.457152e+03 
1.250700e-01 8.353188e+03 
1.263200e-01 8.243054e+03 
1.275500e-01 8.131490e+03 
1.287500e-01 8.023091e+03 
1.299900e-01 7.910372e+03 
1.311300e-01 7.807086e+03 
1.323500e-01 7.696010e+03 
1.335900e-01 7.585448e+03 
1.347100e-01 7.487420e+03 
1.359800e-01 7.378922e+03 
1.372100e-01 7.276653e+03 
1.384300e-01 7.178041e+03 
1.395700e-01 7.089210e+03 
1.407700e-01 6.997901e+03 
1.420300e-01 6.906702e+03 
1.432800e-01 6.818196e+03 
1.444500e-01 6.741246e+03 
1.456300e-01 6.665182e+03 
1.468900e-01 6.587456e+03 
1.480500e-01 6.517882e+03 
1.491700e-01 6.453053e+03 
1.503800e-01 6.385732e+03 
1.516400e-01 6.317378e+03 
1.528200e-01 6.256146e+03 
1.540200e-01 6.195053e+03 
1.551900e-01 6.137454e+03 
1.564300e-01 6.077767e+03 
1.576600e-01 6.019438e+03 
1.588700e-01 5.962828e+03 
1.600900e-01 5.906800e+03 
1.612700e-01 5.853437e+03 
1.625400e-01 5.797061e+03 
1.637600e-01 5.742924e+03 
1.649500e-01 5.690483e+03 
1.662200e-01 5.635368e+03 
1.674000e-01 5.584172e+03 
1.685000e-01 5.537238e+03 
1.697500e-01 5.484217e+03 
1.710300e-01 5.430317e+03 
1.722200e-01 5.381087e+03 
1.734400e-01 5.330449e+03 
1.746400e-01 5.281445e+03 
1.758700e-01 5.231829e+03 
1.770900e-01 5.182966e+03 
1.782700e-01 5.136487e+03 
1.794600e-01 5.090145e+03 
1.807000e-01 5.042500e+03 
1.819100e-01 4.996777e+03 
1.830100e-01 4.956280e+03 
1.842200e-01 4.912493e+03 
1.855000e-01 4.866975e+03 
1.867000e-01 4.825883e+03 
1.879200e-01 4.784766e+03 
1.890900e-01 4.746011e+03 
1.902800e-01 4.707537e+03 
1.915200e-01 4.668070e+03 
1.926900e-01 4.631629e+03 
1.939000e-01 4.595250e+03 
1.951700e-01 4.557661e+03 
1.963100e-01 4.524630e+03 
1.975100e-01 4.490911e+03 
1.987800e-01 4.455767e+03 
2.000100e-01 4.422331e+03 
2.012500e-01 4.389317e+03 
2.023400e-01 4.360705e+03 
2.036100e-01 4.327865e+03 
2.048900e-01 4.295363e+03 
2.060400e-01 4.266583e+03 
2.072200e-01 4.237460e+03 
2.084200e-01 4.208265e+03 
2.096900e-01 4.177812e+03 
2.109200e-01 4.148747e+03 
2.121100e-01 4.120714e+03 
2.132700e-01 4.093741e+03 
2.145200e-01 4.065074e+03 
2.157200e-01 4.037777e+03 
2.168800e-01 4.011667e+03 
2.180700e-01 3.985235e+03 
2.193400e-01 3.957345e+03 
2.206000e-01 3.929938e+03 
2.217500e-01 3.905256e+03 
2.229500e-01 3.879833e+03 
2.241400e-01 3.854954e+03 
2.253500e-01 3.829988e+03 
2.264900e-01 3.806764e+03 
2.277100e-01 3.782537e+03 
2.289900e-01 3.757804e+03 
2.301500e-01 3.735681e+03 
2.313600e-01 3.712897e+03 
2.325600e-01 3.690892e+03 
2.337700e-01 3.668984e+03 
2.350000e-01 3.646997e+03 
2.362000e-01 3.626207e+03 
2.374100e-01 3.605967e+03 
2.386500e-01 3.585488e+03 
2.399100e-01 3.564945e+03 
2.410400e-01 3.547065e+03 
2.422500e-01 3.528187e+03 
2.435000e-01 3.508929e+03 
2.447300e-01 3.490398e+03 
2.458700e-01 3.474155e+03 
2.470600e-01 3.457398e+03 
2.483300e-01 3.439737e+03 
2.495600e-01 3.422895e+03 
2.507600e-01 3.406731e+03 
2.519600e-01 3.390759e+03 
2.532200e-01 3.374193e+03 
2.543700e-01 3.359298e+03 
2.555500e-01 3.344218e+03 
2.568000e-01 3.328435e+03 
2.580100e-01 3.313339e+03 
2.592400e-01 3.298104e+03 
2.604100e-01 3.283749e+03 
2.616100e-01 3.269193e+03 
2.628400e-01 3.254447e+03 
2.640600e-01 3.239806e+03 
2.652200e-01 3.225967e+03 
2.664300e-01 3.211694e+03 
2.676500e-01 3.197466e+03 
2.688400e-01 3.183334e+03 
2.700700e-01 3.168635e+03 
2.712400e-01 3.154806e+03 
2.724800e-01 3.140312e+03 
2.736700e-01 3.126420e+03 
2.748800e-01 3.112308e+03 
2.761000e-01 3.098234e+03 
2.773200e-01 3.084315e+03 
2.785400e-01 3.070376e+03 
2.797000e-01 3.056904e+03 
2.808900e-01 3.043227e+03 
2.821400e-01 3.029014e+03 
2.833900e-01 3.014945e+03 
2.845500e-01 3.001773e+03 
2.857800e-01 2.987950e+03 
2.870300e-01 2.974052e+03 
2.882100e-01 2.961069e+03 
2.893900e-01 2.947988e+03 
2.906300e-01 2.934260e+03 
2.918900e-01 2.920458e+03 
2.930500e-01 2.907881e+03 
2.942500e-01 2.894996e+03 
2.954200e-01 2.882550e+03 
2.966500e-01 2.869596e+03 
2.978900e-01 2.856670e+03 
2.990400e-01 2.844800e+03 
3.002700e-01 2.832038e+03 
3.015100e-01 2.819208e+03 
3.026800e-01 2.807222e+03 
3.038500e-01 2.795349e+03 
3.050300e-01 2.783490e+03 
3.062600e-01 2.771317e+03 
3.075000e-01 2.759166e+03 
3.087000e-01 2.747522e+03 
3.099100e-01 2.735894e+03 
3.111200e-01 2.724338e+03 
3.123100e-01 2.713015e+03 
3.135300e-01 2.701517e+03 
3.147300e-01 2.690314e+03 
3.159900e-01 2.678664e+03 
3.171800e-01 2.667720e+03 
3.183700e-01 2.656848e+03 
3.196300e-01 2.645445e+03 
3.208400e-01 2.634598e+03 
3.220300e-01 2.624028e+03 
3.232000e-01 2.613767e+03 
3.244300e-01 2.603092e+03 
3.256700e-01 2.592431e+03 
3.269200e-01 2.581785e+03 
3.280800e-01 2.571995e+03 
3.292500e-01 2.562220e+03 
3.304800e-01 2.552041e+03 
3.317100e-01 2.541954e+03 
3.328900e-01 2.532365e+03 
3.340700e-01 2.522859e+03 
3.353600e-01 2.512589e+03 
3.365300e-01 2.503370e+03 
3.377100e-01 2.494151e+03 
3.389200e-01 2.484781e+03 
3.401600e-01 2.475264e+03 
3.413700e-01 2.466073e+03 
3.425300e-01 2.457345e+03 
3.437700e-01 2.448096e+03 
3.449800e-01 2.439151e+03 
3.461800e-01 2.430355e+03 
3.473600e-01 2.421786e+03 
3.485800e-01 2.413017e+03 
3.498100e-01 2.404253e+03 
3.510200e-01 2.395706e+03 
3.522000e-01 2.387442e+03 
3.533900e-01 2.379176e+03 
3.546400e-01 2.370659e+03 
3.558400e-01 2.362558e+03 
3.570600e-01 2.354392e+03 
3.582700e-01 2.346361e+03 
3.595000e-01 2.338267e+03 
3.607100e-01 2.330327e+03 
3.618900e-01 2.322613e+03 
3.631200e-01 2.314639e+03 
3.643200e-01 2.306924e+03 
3.655500e-01 2.299082e+03 
3.667300e-01 2.291621e+03 
3.679500e-01 2.283957e+03 
3.691900e-01 2.276232e+03 
3.703600e-01 2.269003e+03 
3.715700e-01 2.261586e+03 
3.727700e-01 2.254290e+03 
3.739900e-01 2.246944e+03 
3.752000e-01 2.239737e+03 
3.763900e-01 2.232706e+03 
3.775800e-01 2.225731e+03 
3.788200e-01 2.218520e+03 
3.800300e-01 2.211541e+03 
3.812100e-01 2.204773e+03 
3.824200e-01 2.197876e+03 
3.836100e-01 2.191145e+03 
3.848600e-01 2.184132e+03 
3.860400e-01 2.177564e+03 
3.872400e-01 2.170935e+03 
3.884600e-01 2.164264e+03 
3.896500e-01 2.157814e+03 
3.908700e-01 2.151251e+03 
3.920600e-01 2.144900e+03 
3.933100e-01 2.138280e+03 
3.945300e-01 2.131870e+03 
3.957200e-01 2.125599e+03 
3.969300e-01 2.119252e+03 
3.981700e-01 2.112798e+03 
3.993500e-01 2.106703e+03 
4.094840e-01 2.056186e+03 
4.272360e-01 1.973710e+03 
4.454600e-01 1.895728e+03 
4.630560e-01 1.826313e+03 
4.804610e-01 1.761948e+03 
4.980690e-01 1.701624e+03 
5.159230e-01 1.644022e+03 
5.317440e-01 1.596248e+03 
5.489640e-01 1.547004e+03 
5.671990e-01 1.497819e+03 
5.838690e-01 1.455477e+03 
6.018840e-01 1.412211e+03 
6.202330e-01 1.370134e+03 
6.379250e-01 1.332014e+03 
6.545410e-01 1.297679e+03 
6.714560e-01 1.264355e+03 
6.892080e-01 1.230822e+03 
7.066010e-01 1.199574e+03 
7.240540e-01 1.169474e+03 
7.420450e-01 1.139493e+03 
7.593780e-01 1.111986e+03 
7.764720e-01 1.085676e+03 
7.942840e-01 1.059265e+03 
8.116170e-01 1.034646e+03 
8.288310e-01 1.010922e+03 
8.462240e-01 9.878369e+02 
8.631980e-01 9.659597e+02 
8.810700e-01 9.437209e+02 
8.989410e-01 9.222351e+02 
9.166330e-01 9.017098e+02 
9.345640e-01 8.814538e+02 
9.515980e-01 8.628397e+02 
9.688720e-01 8.445098e+02 
9.865640e-01 8.262857e+02 
1.031870e+00 7.821395e+02 
1.063490e+00 7.533158e+02 
1.097920e+00 7.234046e+02 
1.134370e+00 6.936046e+02 
1.167730e+00 6.679265e+02 
1.203830e+00 6.414655e+02 
1.240470e+00 6.161875e+02 
1.275790e+00 5.930337e+02 
1.309140e+00 5.722775e+02 
1.342970e+00 5.522572e+02 
1.378420e+00 5.323084e+02 
1.413200e+00 5.137509e+02 
1.448110e+00 4.960131e+02 
1.484090e+00 4.786094e+02 
1.518820e+00 4.626098e+02 
1.552880e+00 4.476995e+02 
1.588630e+00 4.327303e+02 
1.623230e+00 4.188823e+02 
1.657720e+00 4.057249e+02 
1.692450e+00 3.930685e+02 
1.726400e+00 3.812247e+02 
1.762200e+00 3.693311e+02 
1.797880e+00 3.579324e+02 
1.833270e+00 3.471570e+02 
1.869070e+00 3.367070e+02 
1.903200e+00 3.271498e+02 
1.937740e+00 3.178508e+02 
1.973190e+00 3.087027e+02 
2.007440e+00 3.002502e+02 
2.042160e+00 2.920048e+02 
2.077900e+00 2.838371e+02 
2.112390e+00 2.762506e+02 
2.146220e+00 2.691276e+02 
2.181600e+00 2.618987e+02 
2.216930e+00 2.549743e+02 
2.250760e+00 2.486162e+02 
2.286500e+00 2.421377e+02 
2.321770e+00 2.359487e+02 
2.355950e+00 2.301895e+02 
2.391280e+00 2.244342e+02 
2.426240e+00 2.189335e+02 
2.460670e+00 2.137102e+02 
2.495640e+00 2.085979e+02 
2.531080e+00 2.035515e+02 
2.566220e+00 1.987362e+02 
2.600830e+00 1.941665e+02 
2.635080e+00 1.898041e+02 
2.670340e+00 1.854174e+02 
2.705970e+00 1.811444e+02 
2.740040e+00 1.771954e+02 
2.774520e+00 1.733145e+02 
2.809730e+00 1.694888e+02 
2.844390e+00 1.658437e+02 
2.879960e+00 1.622114e+02 
2.914860e+00 1.587520e+02 
2.949410e+00 1.554278e+02 
2.984440e+00 1.521502e+02 
3.019760e+00 1.489536e+02 
3.054730e+00 1.458877e+02 
3.089030e+00 1.429611e+02 
3.124060e+00 1.400636e+02 
3.159560e+00 1.372198e+02 
3.194710e+00 1.344787e+02 
3.229010e+00 1.318773e+02 
3.263320e+00 1.293406e+02 
3.297930e+00 1.268553e+02 
3.332830e+00 1.244241e+02 
3.368040e+00 1.220352e+02 
3.403300e+00 1.197060e+02 
3.438450e+00 1.174537e+02 
3.473060e+00 1.152967e+02 
3.508440e+00 1.131437e+02 
3.543110e+00 1.110887e+02 
3.577470e+00 1.091007e+02 
3.613040e+00 1.070975e+02 
3.648120e+00 1.051780e+02 
3.682910e+00 1.033209e+02 
3.718050e+00 1.014892e+02 
3.753320e+00 9.969952e+01 
3.787980e+00 9.798811e+01 
3.822290e+00 9.633347e+01 
3.857020e+00 9.469659e+01 
3.891920e+00 9.309320e+01 
3.926650e+00 9.153935e+01 
3.961970e+00 8.999553e+01 
3.997360e+00 8.848294e+01 
4.031670e+00 8.705169e+01 
4.066330e+00 8.564371e+01 
4.101420e+00 8.425100e+01 
4.136200e+00 8.290673e+01 
4.170810e+00 8.159892e+01 
4.206250e+00 8.028758e+01 
4.241580e+00 7.900926e+01 
4.276300e+00 7.777896e+01 
4.310970e+00 7.657611e+01 
4.346120e+00 7.538486e+01 
4.380600e+00 7.424439e+01 
4.414730e+00 7.313931e+01 
4.450350e+00 7.201519e+01 
4.485320e+00 7.093502e+01 
4.519810e+00 6.989040e+01 
4.555430e+00 6.883339e+01 
4.590870e+00 6.780501e+01 
4.625480e+00 6.682387e+01 
4.659910e+00 6.586741e+01 
4.695230e+00 6.490974e+01 
4.729960e+00 6.398752e+01 
4.764450e+00 6.308893e+01 
4.799530e+00 6.219167e+01 
4.834910e+00 6.130464e+01 
4.869700e+00 6.045272e+01 
4.904370e+00 5.962059e+01 
4.939450e+00 5.879428e+01 
4.973940e+00 5.799609e+01 
5.008430e+00 5.721286e+01 
5.043810e+00 5.642676e+01 
5.078840e+00 5.566438e+01 
5.113500e+00 5.492405e+01 
5.148890e+00 5.418514e+01 
5.184210e+00 5.346151e+01 
5.219060e+00 5.276023e+01 
5.253660e+00 5.207553e+01 
5.288570e+00 5.139709e+01 
5.323420e+00 5.073335e+01 
5.358440e+00 5.007982e+01 
5.393590e+00 4.943551e+01 
5.428310e+00 4.881204e+01 
5.462800e+00 4.820436e+01 
5.497640e+00 4.760107e+01 
5.532670e+00 4.700413e+01 
5.567280e+00 4.642417e+01 
5.602000e+00 4.585222e+01 
5.637270e+00 4.528308e+01 
5.672410e+00 4.472614e+01 
5.707020e+00 4.418678e+01 
5.742040e+00 4.365212e+01 
5.777430e+00 4.312124e+01 
5.812210e+00 4.260814e+01 
5.846820e+00 4.210507e+01 
5.881610e+00 4.160739e+01 
5.916510e+00 4.111621e+01 
5.951600e+00 4.062985e+01 
5.986560e+00 4.015289e+01 
6.021830e+00 3.967943e+01 
6.056490e+00 3.922261e+01 
6.091160e+00 3.877372e+01 
6.125830e+00 3.833182e+01 
6.161090e+00 3.789003e+01 
6.195760e+00 3.746366e+01 
6.230420e+00 3.704394e+01 
6.265690e+00 3.662339e+01 
6.300950e+00 3.620901e+01 
6.335620e+00 3.580777e+01 
6.370880e+00 3.540590e+01 
6.405550e+00 3.501787e+01 
6.440220e+00 3.463610e+01 
6.475480e+00 3.425362e+01 
6.510150e+00 3.388296e+01 
6.544810e+00 3.351747e+01 
6.580080e+00 3.315103e+01 
6.614750e+00 3.279610e+01 
6.649410e+00 3.244780e+01 
6.684080e+00 3.210469e+01 
6.719340e+00 3.176077e+01 
6.754010e+00 3.142732e+01 
6.788680e+00 3.109827e+01 
6.823940e+00 3.076838e+01 
6.859800e+00 3.043772e+01 
6.894470e+00 3.012230e+01 
6.929140e+00 2.981116e+01 
6.963800e+00 2.950443e+01 
6.999070e+00 2.919675e+01 
7.033730e+00 2.889990e+01 
7.068400e+00 2.860702e+01 
7.103660e+00 2.831325e+01 
7.138330e+00 2.802824e+01 
7.173600e+00 2.774203e+01 
7.208260e+00 2.746459e+01 
7.243530e+00 2.718608e+01 
7.277600e+00 2.692131e+01 
7.312860e+00 2.665154e+01 
7.348120e+00 2.638540e+01 
7.382790e+00 2.612718e+01 
7.417460e+00 2.587214e+01 
7.452720e+00 2.561607e+01 
7.487390e+00 2.536758e+01 
7.522650e+00 2.511817e+01 
7.557320e+00 2.487599e+01 
7.591990e+00 2.463687e+01 
7.627250e+00 2.439682e+01 
7.662510e+00 2.415988e+01 
7.697180e+00 2.392974e+01 
7.731850e+00 2.370245e+01 
7.766510e+00 2.347809e+01 
7.801180e+00 2.325649e+01 
7.836440e+00 2.303466e+01 
7.871110e+00 2.281971e+01 
7.906380e+00 2.260378e+01 
7.941040e+00 2.239422e+01 
7.976310e+00 2.218300e+01 
8.011570e+00 2.197373e+01 
8.046240e+00 2.177051e+01 
8.080900e+00 2.156982e+01 
8.115570e+00 2.137173e+01 
8.150830e+00 2.117351e+01 
8.185500e+00 2.098098e+01 
8.220770e+00 2.078749e+01 
8.255430e+00 2.059963e+01 
8.290100e+00 2.041486e+01 
8.324770e+00 2.023238e+01 
8.359430e+00 2.005211e+01 
8.394700e+00 1.987083e+01 
8.429960e+00 1.969124e+01 
8.464630e+00 1.951618e+01 
8.499890e+00 1.934024e+01 
8.534560e+00 1.916928e+01 
8.569200e+00 1.900044e+01 
