# Parameters:
# omega_b = 0.022270, omega_m = 0.141300, n_s = 1.000000, h = 67.900000, w = -1.000000, sigma_8 = 0.815400
# z = 0.000000
#
# k[1/Mpc] # P(k):
8.694000e-04 1.326223e+04 
2.077466e-03 2.922743e+04 
3.285532e-03 4.207111e+04 
4.493598e-03 5.216965e+04 
5.701664e-03 5.984011e+04 
6.909730e-03 6.542670e+04 
8.117797e-03 6.935359e+04 
9.325863e-03 7.183733e+04 
1.053393e-02 7.310357e+04 
1.174199e-02 7.336635e+04 
1.295006e-02 7.276211e+04 
1.415813e-02 7.148318e+04 
1.536619e-02 6.969273e+04 
1.657426e-02 6.751062e+04 
1.778233e-02 6.505838e+04 
1.899039e-02 6.247445e+04 
2.019846e-02 5.980408e+04 
2.140652e-02 5.712641e+04 
2.261459e-02 5.450285e+04 
2.382266e-02 5.199229e+04 
2.503072e-02 4.963111e+04 
2.623879e-02 4.743634e+04 
2.744685e-02 4.541412e+04 
2.865492e-02 4.357080e+04 
2.986299e-02 4.190049e+04 
3.100100e-02 4.048342e+04 
3.220400e-02 3.913636e+04 
3.288100e-02 3.844361e+04 
3.424300e-02 3.717683e+04 
3.555100e-02 3.610618e+04 
3.686000e-02 3.514646e+04 
3.795000e-02 3.442206e+04 
3.929100e-02 3.361016e+04 
4.039800e-02 3.298590e+04 
4.164000e-02 3.231413e+04 
4.294400e-02 3.162425e+04 
4.415000e-02 3.100236e+04 
4.542900e-02 3.032541e+04 
4.660900e-02 2.969235e+04 
4.782300e-02 2.900973e+04 
4.892900e-02 2.837101e+04 
5.031200e-02 2.754368e+04 
5.155900e-02 2.677076e+04 
5.238100e-02 2.625139e+04 
5.378200e-02 2.535556e+04 
5.513400e-02 2.447654e+04 
5.627600e-02 2.373657e+04 
5.735300e-02 2.304834e+04 
5.870100e-02 2.220090e+04 
5.988700e-02 2.148023e+04 
6.113500e-02 2.075223e+04 
6.225900e-02 2.012629e+04 
6.340100e-02 1.952158e+04 
6.480200e-02 1.882874e+04 
6.601100e-02 1.827681e+04 
6.725500e-02 1.775297e+04 
6.829100e-02 1.735526e+04 
6.958600e-02 1.689640e+04 
7.071100e-02 1.653392e+04 
7.192300e-02 1.617733e+04 
7.307400e-02 1.586928e+04 
7.412300e-02 1.561196e+04 
7.550400e-02 1.530541e+04 
7.663100e-02 1.507513e+04 
7.791200e-02 1.483357e+04 
7.912700e-02 1.462050e+04 
8.027600e-02 1.442661e+04 
8.138400e-02 1.424499e+04 
8.272200e-02 1.403019e+04 
8.406100e-02 1.381640e+04 
8.534100e-02 1.360853e+04 
8.653800e-02 1.340753e+04 
8.759800e-02 1.322689e+04 
8.900300e-02 1.298171e+04 
9.009000e-02 1.278458e+04 
9.113300e-02 1.259073e+04 
9.239600e-02 1.235361e+04 
9.358000e-02 1.212583e+04 
9.496100e-02 1.185817e+04 
9.608400e-02 1.164112e+04 
9.727500e-02 1.141262e+04 
9.852600e-02 1.117316e+04 
9.973800e-02 1.094748e+04 
1.009000e-01 1.073685e+04 
1.020900e-01 1.052717e+04 
1.034000e-01 1.030607e+04 
1.046000e-01 1.011280e+04 
1.057200e-01 9.942567e+03 
1.069100e-01 9.769214e+03 
1.082500e-01 9.588580e+03 
1.093900e-01 9.443233e+03 
1.105400e-01 9.302687e+03 
1.116900e-01 9.173992e+03 
1.129600e-01 9.038225e+03 
1.142000e-01 8.915410e+03 
1.153300e-01 8.808695e+03 
1.166400e-01 8.691849e+03 
1.177800e-01 8.593900e+03 
1.190000e-01 8.492159e+03 
1.201200e-01 8.402375e+03 
1.213400e-01 8.307137e+03 
1.227100e-01 8.200863e+03 
1.238900e-01 8.111041e+03 
1.250700e-01 8.021304e+03 
1.263200e-01 7.927146e+03 
1.275500e-01 7.833724e+03 
1.287500e-01 7.743476e+03 
1.299900e-01 7.650444e+03 
1.311300e-01 7.564943e+03 
1.323500e-01 7.472621e+03 
1.335900e-01 7.379992e+03 
1.347100e-01 7.296921e+03 
1.359800e-01 7.204005e+03 
1.372100e-01 7.114520e+03 
1.384300e-01 7.027261e+03 
1.395700e-01 6.946379e+03 
1.407700e-01 6.862905e+03 
1.420300e-01 6.776302e+03 
1.432800e-01 6.692247e+03 
1.444500e-01 6.616279e+03 
1.456300e-01 6.541187e+03 
1.468900e-01 6.462844e+03 
1.480500e-01 6.392230e+03 
1.491700e-01 6.325961e+03 
1.503800e-01 6.256532e+03 
1.516400e-01 6.186035e+03 
1.528200e-01 6.122861e+03 
1.540200e-01 6.059832e+03 
1.551900e-01 6.000994e+03 
1.564300e-01 5.940166e+03 
1.576600e-01 5.881309e+03 
1.588700e-01 5.824885e+03 
1.600900e-01 5.769117e+03 
1.612700e-01 5.717377e+03 
1.625400e-01 5.662717e+03 
1.637600e-01 5.611015e+03 
1.649500e-01 5.561386e+03 
1.662200e-01 5.509375e+03 
1.674000e-01 5.461894e+03 
1.685000e-01 5.418365e+03 
1.697500e-01 5.369465e+03 
1.710300e-01 5.320024e+03 
1.722200e-01 5.274867e+03 
1.734400e-01 5.228559e+03 
1.746400e-01 5.183750e+03 
1.758700e-01 5.138318e+03 
1.770900e-01 5.093451e+03 
1.782700e-01 5.050770e+03 
1.794600e-01 5.007962e+03 
1.807000e-01 4.963778e+03 
1.819100e-01 4.921374e+03 
1.830100e-01 4.883406e+03 
1.842200e-01 4.842280e+03 
1.855000e-01 4.799503e+03 
1.867000e-01 4.760362e+03 
1.879200e-01 4.721196e+03 
1.890900e-01 4.684196e+03 
1.902800e-01 4.647033e+03 
1.915200e-01 4.608910e+03 
1.926900e-01 4.573616e+03 
1.939000e-01 4.538077e+03 
1.951700e-01 4.501356e+03 
1.963100e-01 4.469021e+03 
1.975100e-01 4.435829e+03 
1.987800e-01 4.401236e+03 
2.000100e-01 4.368290e+03 
2.012500e-01 4.335681e+03 
2.023400e-01 4.307421e+03 
2.036100e-01 4.274991e+03 
2.048900e-01 4.242920e+03 
2.060400e-01 4.214521e+03 
2.072200e-01 4.185795e+03 
2.084200e-01 4.157135e+03 
2.096900e-01 4.127241e+03 
2.109200e-01 4.098708e+03 
2.121100e-01 4.071360e+03 
2.132700e-01 4.045055e+03 
2.145200e-01 4.017099e+03 
2.157200e-01 3.990594e+03 
2.168800e-01 3.965295e+03 
2.180700e-01 3.939684e+03 
2.193400e-01 3.912701e+03 
2.206000e-01 3.886255e+03 
2.217500e-01 3.862440e+03 
2.229500e-01 3.837909e+03 
2.241400e-01 3.813918e+03 
2.253500e-01 3.789841e+03 
2.264900e-01 3.767446e+03 
2.277100e-01 3.744021e+03 
2.289900e-01 3.720035e+03 
2.301500e-01 3.698581e+03 
2.313600e-01 3.676484e+03 
2.325600e-01 3.654888e+03 
2.337700e-01 3.633388e+03 
2.350000e-01 3.611810e+03 
2.362000e-01 3.591246e+03 
2.374100e-01 3.571030e+03 
2.386500e-01 3.550575e+03 
2.399100e-01 3.530056e+03 
2.410400e-01 3.511865e+03 
2.422500e-01 3.492615e+03 
2.435000e-01 3.472975e+03 
2.447300e-01 3.454005e+03 
2.458700e-01 3.437086e+03 
2.470600e-01 3.419630e+03 
2.483300e-01 3.401230e+03 
2.495600e-01 3.383587e+03 
2.507600e-01 3.366521e+03 
2.519600e-01 3.349657e+03 
2.532200e-01 3.332162e+03 
2.543700e-01 3.316399e+03 
2.555500e-01 3.300417e+03 
2.568000e-01 3.283686e+03 
2.580100e-01 3.267682e+03 
2.592400e-01 3.251599e+03 
2.604100e-01 3.236474e+03 
2.616100e-01 3.221136e+03 
2.628400e-01 3.205595e+03 
2.640600e-01 3.190327e+03 
2.652200e-01 3.175959e+03 
2.664300e-01 3.161138e+03 
2.676500e-01 3.146362e+03 
2.688400e-01 3.131868e+03 
2.700700e-01 3.116900e+03 
2.712400e-01 3.102819e+03 
2.724800e-01 3.088059e+03 
2.736700e-01 3.074035e+03 
2.748800e-01 3.059914e+03 
2.761000e-01 3.045832e+03 
2.773200e-01 3.031904e+03 
2.785400e-01 3.018023e+03 
2.797000e-01 3.004745e+03 
2.808900e-01 2.991265e+03 
2.821400e-01 2.977257e+03 
2.833900e-01 2.963396e+03 
2.845500e-01 2.950550e+03 
2.857800e-01 2.937070e+03 
2.870300e-01 2.923516e+03 
2.882100e-01 2.910856e+03 
2.893900e-01 2.898159e+03 
2.906300e-01 2.884867e+03 
2.918900e-01 2.871502e+03 
2.930500e-01 2.859324e+03 
2.942500e-01 2.846860e+03 
2.954200e-01 2.834856e+03 
2.966500e-01 2.822363e+03 
2.978900e-01 2.809897e+03 
2.990400e-01 2.798450e+03 
3.002700e-01 2.786160e+03 
3.015100e-01 2.773816e+03 
3.026800e-01 2.762282e+03 
3.038500e-01 2.750858e+03 
3.050300e-01 2.739447e+03 
3.062600e-01 2.727738e+03 
3.075000e-01 2.716051e+03 
3.087000e-01 2.704851e+03 
3.099100e-01 2.693666e+03 
3.111200e-01 2.682552e+03 
3.123100e-01 2.671663e+03 
3.135300e-01 2.660604e+03 
3.147300e-01 2.649830e+03 
3.159900e-01 2.638627e+03 
3.171800e-01 2.628098e+03 
3.183700e-01 2.617635e+03 
3.196300e-01 2.606661e+03 
3.208400e-01 2.596223e+03 
3.220300e-01 2.586052e+03 
3.232000e-01 2.576168e+03 
3.244300e-01 2.565883e+03 
3.256700e-01 2.555612e+03 
3.269200e-01 2.545356e+03 
3.280800e-01 2.535924e+03 
3.292500e-01 2.526508e+03 
3.304800e-01 2.516702e+03 
3.317100e-01 2.506986e+03 
3.328900e-01 2.497748e+03 
3.340700e-01 2.488592e+03 
3.353600e-01 2.478695e+03 
3.365300e-01 2.469809e+03 
3.377100e-01 2.460924e+03 
3.389200e-01 2.451893e+03 
3.401600e-01 2.442720e+03 
3.413700e-01 2.433856e+03 
3.425300e-01 2.425436e+03 
3.437700e-01 2.416513e+03 
3.449800e-01 2.407883e+03 
3.461800e-01 2.399398e+03 
3.473600e-01 2.391132e+03 
3.485800e-01 2.382673e+03 
3.498100e-01 2.374219e+03 
3.510200e-01 2.365975e+03 
3.522000e-01 2.358003e+03 
3.533900e-01 2.350030e+03 
3.546400e-01 2.341819e+03 
3.558400e-01 2.334010e+03 
3.570600e-01 2.326138e+03 
3.582700e-01 2.318396e+03 
3.595000e-01 2.310594e+03 
3.607100e-01 2.302940e+03 
3.618900e-01 2.295502e+03 
3.631200e-01 2.287814e+03 
3.643200e-01 2.280377e+03 
3.655500e-01 2.272816e+03 
3.667300e-01 2.265623e+03 
3.679500e-01 2.258236e+03 
3.691900e-01 2.250791e+03 
3.703600e-01 2.243823e+03 
3.715700e-01 2.236675e+03 
3.727700e-01 2.229644e+03 
3.739900e-01 2.222563e+03 
3.752000e-01 2.215613e+03 
3.763900e-01 2.208834e+03 
3.775800e-01 2.202108e+03 
3.788200e-01 2.195156e+03 
3.800300e-01 2.188427e+03 
3.812100e-01 2.181907e+03 
3.824200e-01 2.175268e+03 
3.836100e-01 2.168790e+03 
3.848600e-01 2.162040e+03 
3.860400e-01 2.155718e+03 
3.872400e-01 2.149339e+03 
3.884600e-01 2.142915e+03 
3.896500e-01 2.136702e+03 
3.908700e-01 2.130382e+03 
3.920600e-01 2.124266e+03 
3.933100e-01 2.117891e+03 
3.945300e-01 2.111719e+03 
3.957200e-01 2.105682e+03 
3.969300e-01 2.099572e+03 
3.981700e-01 2.093360e+03 
3.993500e-01 2.087493e+03 
4.094840e-01 2.038887e+03 
4.272360e-01 1.959563e+03 
4.454600e-01 1.884573e+03 
4.630560e-01 1.817792e+03 
4.804610e-01 1.755853e+03 
4.980690e-01 1.697788e+03 
5.159230e-01 1.642323e+03 
5.317440e-01 1.596341e+03 
5.489640e-01 1.548893e+03 
5.671990e-01 1.501520e+03 
5.838690e-01 1.460711e+03 
6.018840e-01 1.419012e+03 
6.202330e-01 1.378416e+03 
6.379250e-01 1.341626e+03 
6.545410e-01 1.308452e+03 
6.714560e-01 1.276220e+03 
6.892080e-01 1.243748e+03 
7.066010e-01 1.213453e+03 
7.240540e-01 1.184217e+03 
7.420450e-01 1.155049e+03 
7.593780e-01 1.128256e+03 
7.764720e-01 1.102569e+03 
7.942840e-01 1.076757e+03 
8.116170e-01 1.052645e+03 
8.288310e-01 1.029366e+03 
8.462240e-01 1.006682e+03 
8.631980e-01 9.851430e+02 
8.810700e-01 9.632059e+02 
8.989410e-01 9.419823e+02 
9.166330e-01 9.216818e+02 
9.345640e-01 9.015997e+02 
9.515980e-01 8.831213e+02 
9.688720e-01 8.649087e+02 
9.865640e-01 8.467616e+02 
1.031870e+00 8.027201e+02 
1.063490e+00 7.738805e+02 
1.097920e+00 7.438811e+02 
1.134370e+00 7.139424e+02 
1.167730e+00 6.880982e+02 
1.203830e+00 6.614049e+02 
1.240470e+00 6.358748e+02 
1.275790e+00 6.124496e+02 
1.309140e+00 5.914189e+02 
1.342970e+00 5.711083e+02 
1.378420e+00 5.508497e+02 
1.413200e+00 5.319835e+02 
1.448110e+00 5.139269e+02 
1.484090e+00 4.961978e+02 
1.518820e+00 4.798822e+02 
1.552880e+00 4.646671e+02 
1.588630e+00 4.493745e+02 
1.623230e+00 4.352193e+02 
1.657720e+00 4.217600e+02 
1.692450e+00 4.088046e+02 
1.726400e+00 3.966705e+02 
1.762200e+00 3.844785e+02 
1.797880e+00 3.727846e+02 
1.833270e+00 3.617277e+02 
1.869070e+00 3.509984e+02 
1.903200e+00 3.411780e+02 
1.937740e+00 3.316182e+02 
1.973190e+00 3.222102e+02 
2.007440e+00 3.135131e+02 
2.042160e+00 3.050237e+02 
2.077900e+00 2.966116e+02 
2.112390e+00 2.887945e+02 
2.146220e+00 2.814515e+02 
2.181600e+00 2.739967e+02 
2.216930e+00 2.668528e+02 
2.250760e+00 2.602908e+02 
2.286500e+00 2.536018e+02 
2.321770e+00 2.472087e+02 
2.355950e+00 2.412581e+02 
2.391280e+00 2.353098e+02 
2.426240e+00 2.296213e+02 
2.460670e+00 2.242181e+02 
2.495640e+00 2.189294e+02 
2.531080e+00 2.137054e+02 
2.566220e+00 2.087189e+02 
2.600830e+00 2.039858e+02 
2.635080e+00 1.994665e+02 
2.670340e+00 1.949197e+02 
2.705970e+00 1.904900e+02 
2.740040e+00 1.863952e+02 
2.774520e+00 1.823693e+02 
2.809730e+00 1.784002e+02 
2.844390e+00 1.746177e+02 
2.879960e+00 1.708468e+02 
2.914860e+00 1.672540e+02 
2.949410e+00 1.638006e+02 
2.984440e+00 1.603952e+02 
3.019760e+00 1.570732e+02 
3.054730e+00 1.538866e+02 
3.089030e+00 1.508430e+02 
3.124060e+00 1.478294e+02 
3.159560e+00 1.448712e+02 
3.194710e+00 1.420189e+02 
3.229010e+00 1.393112e+02 
3.263320e+00 1.366699e+02 
3.297930e+00 1.340819e+02 
3.332830e+00 1.315500e+02 
3.368040e+00 1.290613e+02 
3.403300e+00 1.266339e+02 
3.438450e+00 1.242864e+02 
3.473060e+00 1.220377e+02 
3.508440e+00 1.197929e+02 
3.543110e+00 1.176498e+02 
3.577470e+00 1.155756e+02 
3.613040e+00 1.134852e+02 
3.648120e+00 1.114817e+02 
3.682910e+00 1.095432e+02 
3.718050e+00 1.076308e+02 
3.753320e+00 1.057618e+02 
3.787980e+00 1.039742e+02 
3.822290e+00 1.022454e+02 
3.857020e+00 1.005347e+02 
3.891920e+00 9.885880e+01 
3.926650e+00 9.723435e+01 
3.961970e+00 9.562008e+01 
3.997360e+00 9.403804e+01 
4.031670e+00 9.254079e+01 
4.066330e+00 9.106742e+01 
4.101420e+00 8.960981e+01 
4.136200e+00 8.820296e+01 
4.170810e+00 8.683406e+01 
4.206250e+00 8.546083e+01 
4.241580e+00 8.412191e+01 
4.276300e+00 8.283284e+01 
4.310970e+00 8.157222e+01 
4.346120e+00 8.032360e+01 
4.380600e+00 7.912806e+01 
4.414730e+00 7.796945e+01 
4.450350e+00 7.679064e+01 
4.485320e+00 7.565775e+01 
4.519810e+00 7.456167e+01 
4.555430e+00 7.345227e+01 
4.590870e+00 7.237276e+01 
4.625480e+00 7.134273e+01 
4.659910e+00 7.033847e+01 
4.695230e+00 6.933266e+01 
4.729960e+00 6.836392e+01 
4.764450e+00 6.741986e+01 
4.799530e+00 6.647702e+01 
4.834910e+00 6.554479e+01 
4.869700e+00 6.464895e+01 
4.904370e+00 6.377375e+01 
4.939450e+00 6.290454e+01 
4.973940e+00 6.206477e+01 
5.008430e+00 6.124063e+01 
5.043810e+00 6.041321e+01 
5.078840e+00 5.961057e+01 
5.113500e+00 5.883103e+01 
5.148890e+00 5.805280e+01 
5.184210e+00 5.729056e+01 
5.219060e+00 5.655171e+01 
5.253660e+00 5.583005e+01 
5.288570e+00 5.511489e+01 
5.323420e+00 5.441504e+01 
5.358440e+00 5.372576e+01 
5.393590e+00 5.304612e+01 
5.428310e+00 5.238830e+01 
5.462800e+00 5.174700e+01 
5.497640e+00 5.111027e+01 
5.532670e+00 5.047990e+01 
5.567280e+00 4.986732e+01 
5.602000e+00 4.926312e+01 
5.637270e+00 4.866173e+01 
5.672410e+00 4.807312e+01 
5.707020e+00 4.750303e+01 
5.742040e+00 4.693774e+01 
5.777430e+00 4.637635e+01 
5.812210e+00 4.583370e+01 
5.846820e+00 4.530135e+01 
5.881610e+00 4.477457e+01 
5.916510e+00 4.425460e+01 
5.951600e+00 4.373953e+01 
5.986560e+00 4.323427e+01 
6.021830e+00 4.273265e+01 
6.056490e+00 4.224855e+01 
6.091160e+00 4.177273e+01 
6.125830e+00 4.130427e+01 
6.161090e+00 4.083583e+01 
6.195760e+00 4.038359e+01 
6.230420e+00 3.993836e+01 
6.265690e+00 3.949219e+01 
6.300950e+00 3.905226e+01 
6.335620e+00 3.862624e+01 
6.370880e+00 3.819949e+01 
6.405550e+00 3.778724e+01 
6.440220e+00 3.738153e+01 
6.475480e+00 3.697502e+01 
6.510150e+00 3.658100e+01 
6.544810e+00 3.619234e+01 
6.580080e+00 3.580262e+01 
6.614750e+00 3.542511e+01 
6.649410e+00 3.505444e+01 
6.684080e+00 3.468921e+01 
6.719340e+00 3.432310e+01 
6.754010e+00 3.396802e+01 
6.788680e+00 3.361742e+01 
6.823940e+00 3.326590e+01 
6.859800e+00 3.291352e+01 
6.894470e+00 3.257720e+01 
6.929140e+00 3.224537e+01 
6.963800e+00 3.191821e+01 
6.999070e+00 3.159000e+01 
7.033730e+00 3.127314e+01 
7.068400e+00 3.096050e+01 
7.103660e+00 3.064688e+01 
7.138330e+00 3.034253e+01 
7.173600e+00 3.003676e+01 
7.208260e+00 2.974032e+01 
7.243530e+00 2.944273e+01 
7.277600e+00 2.915968e+01 
7.312860e+00 2.887118e+01 
7.348120e+00 2.858653e+01 
7.382790e+00 2.831034e+01 
7.417460e+00 2.803743e+01 
7.452720e+00 2.776334e+01 
7.487390e+00 2.749736e+01 
7.522650e+00 2.723035e+01 
7.557320e+00 2.697091e+01 
7.591990e+00 2.671467e+01 
7.627250e+00 2.645741e+01 
7.662510e+00 2.620346e+01 
7.697180e+00 2.595667e+01 
7.731850e+00 2.571288e+01 
7.766510e+00 2.547221e+01 
7.801180e+00 2.523448e+01 
7.836440e+00 2.499640e+01 
7.871110e+00 2.476564e+01 
7.906380e+00 2.453381e+01 
7.941040e+00 2.430881e+01 
7.976310e+00 2.408190e+01 
8.011570e+00 2.385695e+01 
8.046240e+00 2.363847e+01 
8.080900e+00 2.342272e+01 
8.115570e+00 2.320972e+01 
8.150830e+00 2.299652e+01 
8.185500e+00 2.278942e+01 
8.220770e+00 2.258127e+01 
8.255430e+00 2.237918e+01 
8.290100e+00 2.218024e+01 
8.324770e+00 2.198373e+01 
8.359430e+00 2.178959e+01 
8.394700e+00 2.159436e+01 
8.429960e+00 2.140085e+01 
8.464630e+00 2.121215e+01 
8.499890e+00 2.102248e+01 
8.534560e+00 2.083817e+01 
8.569200e+00 2.065614e+01 
