# Parameters:
# omega_b = 0.022270, omega_m = 0.141300, n_s = 0.900000, h = 67.900000, w = -1.000000, sigma_8 = 0.815400
# z = 0.000000
#
# k[1/Mpc] # P(k):
8.694000e-04 2.143731e+04 
2.077466e-03 4.328966e+04 
3.285532e-03 5.952940e+04 
4.493598e-03 7.154776e+04 
5.701664e-03 8.014178e+04 
6.909730e-03 8.596742e+04 
8.117797e-03 8.968813e+04 
9.325863e-03 9.164353e+04 
1.053393e-02 9.215692e+04 
1.174199e-02 9.151820e+04 
1.295006e-02 8.991054e+04 
1.415813e-02 8.757755e+04 
1.536619e-02 8.471967e+04 
1.657426e-02 8.148026e+04 
1.778233e-02 7.799914e+04 
1.899039e-02 7.443438e+04 
2.019846e-02 7.084075e+04 
2.140652e-02 6.730690e+04 
2.261459e-02 6.389665e+04 
2.382266e-02 6.066956e+04 
2.503072e-02 5.765985e+04 
2.623879e-02 5.488098e+04 
2.744685e-02 5.233422e+04 
2.865492e-02 5.002059e+04 
2.986299e-02 4.792877e+04 
3.100100e-02 4.615513e+04 
3.220400e-02 4.446823e+04 
3.288100e-02 4.359951e+04 
3.424300e-02 4.200725e+04 
3.555100e-02 4.065588e+04 
3.686000e-02 3.944054e+04 
3.795000e-02 3.851978e+04 
3.929100e-02 3.748417e+04 
4.039800e-02 3.668718e+04 
4.164000e-02 3.583212e+04 
4.294400e-02 3.495978e+04 
4.415000e-02 3.417842e+04 
4.542900e-02 3.333921e+04 
4.660900e-02 3.256320e+04 
4.782300e-02 3.173948e+04 
4.892900e-02 3.097771e+04 
5.031200e-02 3.000392e+04 
5.155900e-02 2.910643e+04 
5.238100e-02 2.850888e+04 
5.378200e-02 2.748694e+04 
5.513400e-02 2.649464e+04 
5.627600e-02 2.566570e+04 
5.735300e-02 2.489899e+04 
5.870100e-02 2.395998e+04 
5.988700e-02 2.316465e+04 
6.113500e-02 2.236363e+04 
6.225900e-02 2.167631e+04 
6.340100e-02 2.101276e+04 
6.480200e-02 2.025237e+04 
6.601100e-02 1.964561e+04 
6.725500e-02 1.906807e+04 
6.829100e-02 1.862748e+04 
6.958600e-02 1.811707e+04 
7.071100e-02 1.771117e+04 
7.192300e-02 1.730923e+04 
7.307400e-02 1.695942e+04 
7.412300e-02 1.666511e+04 
7.550400e-02 1.631135e+04 
7.663100e-02 1.604386e+04 
7.791200e-02 1.576124e+04 
7.912700e-02 1.551089e+04 
8.027600e-02 1.528315e+04 
8.138400e-02 1.507023e+04 
8.272200e-02 1.481951e+04 
8.406100e-02 1.457179e+04 
8.534100e-02 1.433356e+04 
8.653800e-02 1.410594e+04 
8.759800e-02 1.390299e+04 
8.900300e-02 1.363010e+04 
9.009000e-02 1.341290e+04 
9.113300e-02 1.320106e+04 
9.239600e-02 1.294341e+04 
9.358000e-02 1.269765e+04 
9.496100e-02 1.241093e+04 
9.608400e-02 1.217948e+04 
9.727500e-02 1.193660e+04 
9.852600e-02 1.168359e+04 
9.973800e-02 1.144563e+04 
1.009000e-01 1.122395e+04 
1.020900e-01 1.100384e+04 
1.034000e-01 1.077184e+04 
1.046000e-01 1.056908e+04 
1.057200e-01 1.039027e+04 
1.069100e-01 1.020802e+04 
1.082500e-01 1.001746e+04 
1.093900e-01 9.863562e+03 
1.105400e-01 9.714424e+03 
1.116900e-01 9.576834e+03 
1.129600e-01 9.431298e+03 
1.142000e-01 9.298591e+03 
1.153300e-01 9.182855e+03 
1.166400e-01 9.055453e+03 
1.177800e-01 8.948176e+03 
1.190000e-01 8.836517e+03 
1.201200e-01 8.737718e+03 
1.213400e-01 8.632862e+03 
1.227100e-01 8.516005e+03 
1.238900e-01 8.417333e+03 
1.250700e-01 8.319106e+03 
1.263200e-01 8.216282e+03 
1.275500e-01 8.114801e+03 
1.287500e-01 8.017075e+03 
1.299900e-01 7.916816e+03 
1.311300e-01 7.825042e+03 
1.323500e-01 7.726490e+03 
1.335900e-01 7.627931e+03 
1.347100e-01 7.539957e+03 
1.359800e-01 7.441793e+03 
1.372100e-01 7.347715e+03 
1.384300e-01 7.256130e+03 
1.395700e-01 7.171594e+03 
1.407700e-01 7.084382e+03 
1.420300e-01 6.994208e+03 
1.432800e-01 6.906688e+03 
1.444500e-01 6.827709e+03 
1.456300e-01 6.749642e+03 
1.468900e-01 6.668144e+03 
1.480500e-01 6.594675e+03 
1.491700e-01 6.525639e+03 
1.503800e-01 6.453200e+03 
1.516400e-01 6.379583e+03 
1.528200e-01 6.313320e+03 
1.540200e-01 6.247213e+03 
1.551900e-01 6.185193e+03 
1.564300e-01 6.121002e+03 
1.576600e-01 6.058735e+03 
1.588700e-01 5.998857e+03 
1.600900e-01 5.939661e+03 
1.612700e-01 5.884476e+03 
1.625400e-01 5.826178e+03 
1.637600e-01 5.770994e+03 
1.649500e-01 5.717998e+03 
1.662200e-01 5.662467e+03 
1.674000e-01 5.611805e+03 
1.685000e-01 5.565360e+03 
1.697500e-01 5.513276e+03 
1.710300e-01 5.460710e+03 
1.722200e-01 5.412698e+03 
1.734400e-01 5.363733e+03 
1.746400e-01 5.316363e+03 
1.758700e-01 5.268431e+03 
1.770900e-01 5.221286e+03 
1.782700e-01 5.176439e+03 
1.794600e-01 5.131617e+03 
1.807000e-01 5.085460e+03 
1.819100e-01 5.041164e+03 
1.830100e-01 5.001652e+03 
1.842200e-01 4.958880e+03 
1.855000e-01 4.914397e+03 
1.867000e-01 4.873805e+03 
1.879200e-01 4.833189e+03 
1.890900e-01 4.794826e+03 
1.902800e-01 4.756333e+03 
1.915200e-01 4.716846e+03 
1.926900e-01 4.680282e+03 
1.939000e-01 4.643441e+03 
1.951700e-01 4.605373e+03 
1.963100e-01 4.571833e+03 
1.975100e-01 4.537351e+03 
1.987800e-01 4.501413e+03 
2.000100e-01 4.467164e+03 
2.012500e-01 4.433213e+03 
2.023400e-01 4.403789e+03 
2.036100e-01 4.370008e+03 
2.048900e-01 4.336540e+03 
2.060400e-01 4.306905e+03 
2.072200e-01 4.276922e+03 
2.084200e-01 4.246940e+03 
2.096900e-01 4.215666e+03 
2.109200e-01 4.185816e+03 
2.121100e-01 4.157193e+03 
2.132700e-01 4.129660e+03 
2.145200e-01 4.100398e+03 
2.157200e-01 4.072656e+03 
2.168800e-01 4.046175e+03 
2.180700e-01 4.019368e+03 
2.193400e-01 3.991140e+03 
2.206000e-01 3.963505e+03 
2.217500e-01 3.938618e+03 
2.229500e-01 3.912984e+03 
2.241400e-01 3.887971e+03 
2.253500e-01 3.862871e+03 
2.264900e-01 3.839523e+03 
2.277100e-01 3.815141e+03 
2.289900e-01 3.790223e+03 
2.301500e-01 3.767933e+03 
2.313600e-01 3.744976e+03 
2.325600e-01 3.722630e+03 
2.337700e-01 3.700381e+03 
2.350000e-01 3.678053e+03 
2.362000e-01 3.656812e+03 
2.374100e-01 3.635976e+03 
2.386500e-01 3.614894e+03 
2.399100e-01 3.593745e+03 
2.410400e-01 3.575068e+03 
2.422500e-01 3.555313e+03 
2.435000e-01 3.535158e+03 
2.447300e-01 3.515700e+03 
2.458700e-01 3.498390e+03 
2.470600e-01 3.480531e+03 
2.483300e-01 3.461705e+03 
2.495600e-01 3.443671e+03 
2.507600e-01 3.426253e+03 
2.519600e-01 3.409041e+03 
2.532200e-01 3.391185e+03 
2.543700e-01 3.375100e+03 
2.555500e-01 3.358798e+03 
2.568000e-01 3.341730e+03 
2.580100e-01 3.325404e+03 
2.592400e-01 3.308987e+03 
2.604100e-01 3.293542e+03 
2.616100e-01 3.277879e+03 
2.628400e-01 3.262009e+03 
2.640600e-01 3.246387e+03 
2.652200e-01 3.231674e+03 
2.664300e-01 3.216496e+03 
2.676500e-01 3.201366e+03 
2.688400e-01 3.186492e+03 
2.700700e-01 3.171113e+03 
2.712400e-01 3.156644e+03 
2.724800e-01 3.141478e+03 
2.736700e-01 3.127038e+03 
2.748800e-01 3.112468e+03 
2.761000e-01 3.097937e+03 
2.773200e-01 3.083565e+03 
2.785400e-01 3.069223e+03 
2.797000e-01 3.055468e+03 
2.808900e-01 3.041503e+03 
2.821400e-01 3.026991e+03 
2.833900e-01 3.012628e+03 
2.845500e-01 2.999273e+03 
2.857800e-01 2.985258e+03 
2.870300e-01 2.971167e+03 
2.882100e-01 2.958003e+03 
2.893900e-01 2.944774e+03 
2.906300e-01 2.930908e+03 
2.918900e-01 2.916968e+03 
2.930500e-01 2.904264e+03 
2.942500e-01 2.891254e+03 
2.954200e-01 2.878701e+03 
2.966500e-01 2.865636e+03 
2.978900e-01 2.852599e+03 
2.990400e-01 2.840628e+03 
3.002700e-01 2.827764e+03 
3.015100e-01 2.814837e+03 
3.026800e-01 2.802759e+03 
3.038500e-01 2.790796e+03 
3.050300e-01 2.778845e+03 
3.062600e-01 2.766565e+03 
3.075000e-01 2.754307e+03 
3.087000e-01 2.742559e+03 
3.099100e-01 2.730828e+03 
3.111200e-01 2.719171e+03 
3.123100e-01 2.707749e+03 
3.135300e-01 2.696151e+03 
3.147300e-01 2.684851e+03 
3.159900e-01 2.673099e+03 
3.171800e-01 2.662057e+03 
3.183700e-01 2.651083e+03 
3.196300e-01 2.639574e+03 
3.208400e-01 2.628626e+03 
3.220300e-01 2.617958e+03 
3.232000e-01 2.607600e+03 
3.244300e-01 2.596824e+03 
3.256700e-01 2.586062e+03 
3.269200e-01 2.575315e+03 
3.280800e-01 2.565432e+03 
3.292500e-01 2.555574e+03 
3.304800e-01 2.545311e+03 
3.317100e-01 2.535142e+03 
3.328900e-01 2.525474e+03 
3.340700e-01 2.515890e+03 
3.353600e-01 2.505537e+03 
3.365300e-01 2.496244e+03 
3.377100e-01 2.486952e+03 
3.389200e-01 2.477507e+03 
3.401600e-01 2.467914e+03 
3.413700e-01 2.458655e+03 
3.425300e-01 2.449869e+03 
3.437700e-01 2.440557e+03 
3.449800e-01 2.431551e+03 
3.461800e-01 2.422696e+03 
3.473600e-01 2.414073e+03 
3.485800e-01 2.405258e+03 
3.498100e-01 2.396448e+03 
3.510200e-01 2.387856e+03 
3.522000e-01 2.379548e+03 
3.533900e-01 2.371239e+03 
3.546400e-01 2.362695e+03 
3.558400e-01 2.354570e+03 
3.570600e-01 2.346379e+03 
3.582700e-01 2.338323e+03 
3.595000e-01 2.330204e+03 
3.607100e-01 2.322247e+03 
3.618900e-01 2.314522e+03 
3.631200e-01 2.306537e+03 
3.643200e-01 2.298811e+03 
3.655500e-01 2.290957e+03 
3.667300e-01 2.283484e+03 
3.679500e-01 2.275826e+03 
3.691900e-01 2.268106e+03 
3.703600e-01 2.260881e+03 
3.715700e-01 2.253469e+03 
3.727700e-01 2.246177e+03 
3.739900e-01 2.238838e+03 
3.752000e-01 2.231644e+03 
3.763900e-01 2.224625e+03 
3.775800e-01 2.217661e+03 
3.788200e-01 2.210463e+03 
3.800300e-01 2.203496e+03 
3.812100e-01 2.196749e+03 
3.824200e-01 2.189881e+03 
3.836100e-01 2.183179e+03 
3.848600e-01 2.176194e+03 
3.860400e-01 2.169653e+03 
3.872400e-01 2.163053e+03 
3.884600e-01 2.156413e+03 
3.896500e-01 2.149993e+03 
3.908700e-01 2.143462e+03 
3.920600e-01 2.137141e+03 
3.933100e-01 2.130553e+03 
3.945300e-01 2.124173e+03 
3.957200e-01 2.117939e+03 
3.969300e-01 2.111632e+03 
3.981700e-01 2.105218e+03 
3.993500e-01 2.099161e+03 
4.094840e-01 2.048990e+03 
4.272360e-01 1.967141e+03 
4.454600e-01 1.889752e+03 
4.630560e-01 1.820785e+03 
4.804610e-01 1.756762e+03 
4.980690e-01 1.696659e+03 
5.159230e-01 1.639212e+03 
5.317440e-01 1.591544e+03 
5.489640e-01 1.542339e+03 
5.671990e-01 1.493190e+03 
5.838690e-01 1.450858e+03 
6.018840e-01 1.407605e+03 
6.202330e-01 1.365528e+03 
6.379250e-01 1.327404e+03 
6.545410e-01 1.293067e+03 
6.714560e-01 1.259732e+03 
6.892080e-01 1.226187e+03 
7.066010e-01 1.194919e+03 
7.240540e-01 1.164782e+03 
7.420450e-01 1.134765e+03 
7.593780e-01 1.107219e+03 
7.764720e-01 1.080854e+03 
7.942840e-01 1.054399e+03 
8.116170e-01 1.029706e+03 
8.288310e-01 1.005911e+03 
8.462240e-01 9.827500e+02 
8.631980e-01 9.607907e+02 
8.810700e-01 9.384568e+02 
8.989410e-01 9.168770e+02 
9.166330e-01 8.962586e+02 
9.345640e-01 8.758981e+02 
9.515980e-01 8.571842e+02 
9.688720e-01 8.387584e+02 
9.865640e-01 8.204277e+02 
1.031870e+00 7.760258e+02 
1.063490e+00 7.470279e+02 
1.097920e+00 7.169303e+02 
1.134370e+00 6.869551e+02 
1.167730e+00 6.611269e+02 
1.203830e+00 6.345113e+02 
1.240470e+00 6.090982e+02 
1.275790e+00 5.858328e+02 
1.309140e+00 5.649789e+02 
1.342970e+00 5.448765e+02 
1.378420e+00 5.248568e+02 
1.413200e+00 5.062398e+02 
1.448110e+00 4.884533e+02 
1.484090e+00 4.710152e+02 
1.518820e+00 4.549910e+02 
1.552880e+00 4.400683e+02 
1.588630e+00 4.250926e+02 
1.623230e+00 4.112498e+02 
1.657720e+00 3.981030e+02 
1.692450e+00 3.854664e+02 
1.726400e+00 3.736441e+02 
1.762200e+00 3.617808e+02 
1.797880e+00 3.504183e+02 
1.833270e+00 3.396844e+02 
1.869070e+00 3.292820e+02 
1.903200e+00 3.197717e+02 
1.937740e+00 3.105242e+02 
1.973190e+00 3.014321e+02 
2.007440e+00 2.930358e+02 
2.042160e+00 2.848496e+02 
2.077900e+00 2.767458e+02 
2.112390e+00 2.692225e+02 
2.146220e+00 2.621622e+02 
2.181600e+00 2.550021e+02 
2.216930e+00 2.481466e+02 
2.250760e+00 2.418546e+02 
2.286500e+00 2.354468e+02 
2.321770e+00 2.293289e+02 
2.355950e+00 2.236381e+02 
2.391280e+00 2.179550e+02 
2.426240e+00 2.125256e+02 
2.460670e+00 2.073722e+02 
2.495640e+00 2.023309e+02 
2.531080e+00 1.973576e+02 
2.566220e+00 1.926138e+02 
2.600830e+00 1.881138e+02 
2.635080e+00 1.838197e+02 
2.670340e+00 1.795044e+02 
2.705970e+00 1.753028e+02 
2.740040e+00 1.714214e+02 
2.774520e+00 1.676084e+02 
2.809730e+00 1.638514e+02 
2.844390e+00 1.602730e+02 
2.879960e+00 1.567087e+02 
2.914860e+00 1.533157e+02 
2.949410e+00 1.500565e+02 
2.984440e+00 1.468446e+02 
3.019760e+00 1.437132e+02 
3.054730e+00 1.407108e+02 
3.089030e+00 1.378461e+02 
3.124060e+00 1.350110e+02 
3.159560e+00 1.322292e+02 
3.194710e+00 1.295493e+02 
3.229010e+00 1.270065e+02 
3.263320e+00 1.245282e+02 
3.297930e+00 1.221007e+02 
3.332830e+00 1.197271e+02 
3.368040e+00 1.173956e+02 
3.403300e+00 1.151230e+02 
3.438450e+00 1.129263e+02 
3.473060e+00 1.108229e+02 
3.508440e+00 1.087248e+02 
3.543110e+00 1.067225e+02 
3.577470e+00 1.047863e+02 
3.613040e+00 1.028357e+02 
3.648120e+00 1.009673e+02 
3.682910e+00 9.916018e+01 
3.718050e+00 9.737848e+01 
3.753320e+00 9.563805e+01 
3.787980e+00 9.397426e+01 
3.822290e+00 9.236608e+01 
3.857020e+00 9.077572e+01 
3.891920e+00 8.921827e+01 
3.926650e+00 8.770939e+01 
3.961970e+00 8.621062e+01 
3.997360e+00 8.474274e+01 
4.031670e+00 8.335403e+01 
4.066330e+00 8.198835e+01 
4.101420e+00 8.063766e+01 
4.136200e+00 7.933456e+01 
4.170810e+00 7.806695e+01 
4.206250e+00 7.679638e+01 
4.241580e+00 7.555803e+01 
4.276300e+00 7.436656e+01 
4.310970e+00 7.320194e+01 
4.346120e+00 7.204883e+01 
4.380600e+00 7.094525e+01 
4.414730e+00 6.987604e+01 
4.450350e+00 6.878879e+01 
4.485320e+00 6.774418e+01 
4.519810e+00 6.673427e+01 
4.555430e+00 6.571258e+01 
4.590870e+00 6.471875e+01 
4.625480e+00 6.377087e+01 
4.659910e+00 6.284692e+01 
4.695230e+00 6.192213e+01 
4.729960e+00 6.103170e+01 
4.764450e+00 6.016431e+01 
4.799530e+00 5.929849e+01 
4.834910e+00 5.844263e+01 
4.869700e+00 5.762083e+01 
4.904370e+00 5.681822e+01 
4.939450e+00 5.602139e+01 
4.973940e+00 5.525199e+01 
5.008430e+00 5.449708e+01 
5.043810e+00 5.373957e+01 
5.078840e+00 5.300507e+01 
5.113500e+00 5.229187e+01 
5.148890e+00 5.158029e+01 
5.184210e+00 5.088350e+01 
5.219060e+00 5.020836e+01 
5.253660e+00 4.954941e+01 
5.288570e+00 4.889655e+01 
5.323420e+00 4.825795e+01 
5.358440e+00 4.762930e+01 
5.393590e+00 4.700958e+01 
5.428310e+00 4.641008e+01 
5.462800e+00 4.582587e+01 
5.497640e+00 4.524595e+01 
5.532670e+00 4.467227e+01 
5.567280e+00 4.411500e+01 
5.602000e+00 4.356548e+01 
5.637270e+00 4.301884e+01 
5.672410e+00 4.248399e+01 
5.707020e+00 4.196606e+01 
5.742040e+00 4.145281e+01 
5.777430e+00 4.094326e+01 
5.812210e+00 4.045081e+01 
5.846820e+00 3.996815e+01 
5.881610e+00 3.949071e+01 
5.916510e+00 3.901955e+01 
5.951600e+00 3.855317e+01 
5.986560e+00 3.809587e+01 
6.021830e+00 3.764196e+01 
6.056490e+00 3.720413e+01 
6.091160e+00 3.677398e+01 
6.125830e+00 3.635057e+01 
6.161090e+00 3.592733e+01 
6.195760e+00 3.551898e+01 
6.230420e+00 3.511703e+01 
6.265690e+00 3.471432e+01 
6.300950e+00 3.431766e+01 
6.335620e+00 3.393362e+01 
6.370880e+00 3.354899e+01 
6.405550e+00 3.317772e+01 
6.440220e+00 3.281247e+01 
6.475480e+00 3.244658e+01 
6.510150e+00 3.209207e+01 
6.544810e+00 3.174263e+01 
6.580080e+00 3.139231e+01 
6.614750e+00 3.105301e+01 
6.649410e+00 3.072016e+01 
6.684080e+00 3.039230e+01 
6.719340e+00 3.006369e+01 
6.754010e+00 2.974513e+01 
6.788680e+00 2.943087e+01 
6.823940e+00 2.911583e+01 
6.859800e+00 2.880007e+01 
6.894470e+00 2.849897e+01 
6.929140e+00 2.820202e+01 
6.963800e+00 2.790929e+01 
6.999070e+00 2.761568e+01 
7.033730e+00 2.733250e+01 
7.068400e+00 2.705312e+01 
7.103660e+00 2.677291e+01 
7.138330e+00 2.650112e+01 
7.173600e+00 2.622827e+01 
7.208260e+00 2.596381e+01 
7.243530e+00 2.569833e+01 
7.277600e+00 2.544601e+01 
7.312860e+00 2.518898e+01 
7.348120e+00 2.493542e+01 
7.382790e+00 2.468942e+01 
7.417460e+00 2.444653e+01 
7.452720e+00 2.420272e+01 
7.487390e+00 2.396613e+01 
7.522650e+00 2.372868e+01 
7.557320e+00 2.349819e+01 
7.591990e+00 2.327064e+01 
7.627250e+00 2.304222e+01 
7.662510e+00 2.281677e+01 
7.697180e+00 2.259787e+01 
7.731850e+00 2.238172e+01 
7.766510e+00 2.216837e+01 
7.801180e+00 2.195765e+01 
7.836440e+00 2.174677e+01 
7.871110e+00 2.154248e+01 
7.906380e+00 2.133726e+01 
7.941040e+00 2.113811e+01 
7.976310e+00 2.093742e+01 
8.011570e+00 2.073864e+01 
8.046240e+00 2.054560e+01 
8.080900e+00 2.035498e+01 
8.115570e+00 2.016686e+01 
8.150830e+00 1.997871e+01 
8.185500e+00 1.979596e+01 
8.220770e+00 1.961230e+01 
8.255430e+00 1.943401e+01 
8.290100e+00 1.925869e+01 
8.324770e+00 1.908556e+01 
8.359430e+00 1.891453e+01 
8.394700e+00 1.874256e+01 
8.429960e+00 1.857223e+01 
8.464630e+00 1.840625e+01 
8.499890e+00 1.823944e+01 
8.534560e+00 1.807735e+01 
8.569200e+00 1.791728e+01 
