# Parameters:
# omega_b = 0.022270, omega_m = 0.141300, n_s = 0.950000, h = 67.900000, w = -1.000000, sigma_8 = 0.815400
# z = 0.000000
#
# k[1/Mpc] # P(k):
8.694000e-04 1.686400e+04 
2.077466e-03 3.559305e+04 
3.285532e-03 5.007543e+04 
4.493598e-03 6.112725e+04 
5.701664e-03 6.927872e+04 
6.909730e-03 7.501751e+04 
8.117797e-03 7.888012e+04 
9.325863e-03 8.114147e+04 
1.053393e-02 8.207375e+04 
1.174199e-02 8.192730e+04 
1.295006e-02 8.086140e+04 
1.415813e-02 7.909342e+04 
1.536619e-02 7.680482e+04 
1.657426e-02 7.412677e+04 
1.778233e-02 7.118810e+04 
1.899039e-02 6.813736e+04 
2.019846e-02 6.502866e+04 
2.140652e-02 6.194668e+04 
2.261459e-02 5.895252e+04 
2.382266e-02 5.610471e+04 
2.503072e-02 5.343848e+04 
2.623879e-02 5.096915e+04 
2.744685e-02 4.870056e+04 
2.865492e-02 4.663647e+04 
2.986299e-02 4.476835e+04 
3.100100e-02 4.318397e+04 
3.220400e-02 4.167740e+04 
3.288100e-02 4.090200e+04 
3.424300e-02 3.948216e+04 
3.555100e-02 3.827923e+04 
3.686000e-02 3.719873e+04 
3.795000e-02 3.638128e+04 
3.929100e-02 3.546295e+04 
4.039800e-02 3.475621e+04 
4.164000e-02 3.399663e+04 
4.294400e-02 3.321897e+04 
4.415000e-02 3.252017e+04 
4.542900e-02 3.176477e+04 
4.660900e-02 3.106251e+04 
4.782300e-02 3.031155e+04 
4.892900e-02 2.961326e+04 
5.031200e-02 2.871512e+04 
5.155900e-02 2.788209e+04 
5.238100e-02 2.732509e+04 
5.378200e-02 2.636868e+04 
5.513400e-02 2.543544e+04 
5.627600e-02 2.465303e+04 
5.735300e-02 2.392745e+04 
5.870100e-02 2.303656e+04 
5.988700e-02 2.228053e+04 
6.113500e-02 2.151802e+04 
6.225900e-02 2.086311e+04 
6.340100e-02 2.023066e+04 
6.480200e-02 1.950600e+04 
6.601100e-02 1.892827e+04 
6.725500e-02 1.837919e+04 
6.829100e-02 1.796136e+04 
6.958600e-02 1.747832e+04 
7.071100e-02 1.709550e+04 
7.192300e-02 1.671768e+04 
7.307400e-02 1.639010e+04 
7.412300e-02 1.611547e+04 
7.550400e-02 1.578681e+04 
7.663100e-02 1.553907e+04 
7.791200e-02 1.527816e+04 
7.912700e-02 1.504743e+04 
8.027600e-02 1.483738e+04 
8.138400e-02 1.464072e+04 
8.272200e-02 1.440852e+04 
8.406100e-02 1.417811e+04 
8.534100e-02 1.395518e+04 
8.653800e-02 1.374082e+04 
8.759800e-02 1.354891e+04 
8.900300e-02 1.328962e+04 
9.009000e-02 1.308222e+04 
9.113300e-02 1.287915e+04 
9.239600e-02 1.263150e+04 
9.358000e-02 1.239454e+04 
9.496100e-02 1.211725e+04 
9.608400e-02 1.189301e+04 
9.727500e-02 1.165740e+04 
9.852600e-02 1.141144e+04 
9.973800e-02 1.117998e+04 
1.009000e-01 1.096424e+04 
1.020900e-01 1.074993e+04 
1.034000e-01 1.052407e+04 
1.046000e-01 1.032672e+04 
1.057200e-01 1.015290e+04 
1.069100e-01 9.975826e+03 
1.082500e-01 9.791059e+03 
1.093900e-01 9.642120e+03 
1.105400e-01 9.497944e+03 
1.116900e-01 9.365401e+03 
1.129600e-01 9.225367e+03 
1.142000e-01 9.098109e+03 
1.153300e-01 8.987281e+03 
1.166400e-01 8.865529e+03 
1.177800e-01 8.763142e+03 
1.190000e-01 8.656635e+03 
1.201200e-01 8.562402e+03 
1.213400e-01 8.462396e+03 
1.227100e-01 8.350733e+03 
1.238900e-01 8.256380e+03 
1.250700e-01 8.162221e+03 
1.263200e-01 8.063530e+03 
1.275500e-01 7.965852e+03 
1.287500e-01 7.871648e+03 
1.299900e-01 7.774786e+03 
1.311300e-01 7.685975e+03 
1.323500e-01 7.590391e+03 
1.335900e-01 7.494693e+03 
1.347100e-01 7.409132e+03 
1.359800e-01 7.313594e+03 
1.372100e-01 7.221900e+03 
1.384300e-01 7.132599e+03 
1.395700e-01 7.050087e+03 
1.407700e-01 6.964959e+03 
1.420300e-01 6.876891e+03 
1.432800e-01 6.791415e+03 
1.444500e-01 6.714290e+03 
1.456300e-01 6.638055e+03 
1.468900e-01 6.558504e+03 
1.480500e-01 6.486797e+03 
1.491700e-01 6.419447e+03 
1.503800e-01 6.348813e+03 
1.516400e-01 6.277048e+03 
1.528200e-01 6.212535e+03 
1.540200e-01 6.148173e+03 
1.551900e-01 6.087866e+03 
1.564300e-01 6.025466e+03 
1.576600e-01 5.964971e+03 
1.588700e-01 5.906836e+03 
1.600900e-01 5.849367e+03 
1.612700e-01 5.795852e+03 
1.625400e-01 5.739318e+03 
1.637600e-01 5.685804e+03 
1.649500e-01 5.634412e+03 
1.662200e-01 5.580558e+03 
1.674000e-01 5.531414e+03 
1.685000e-01 5.486360e+03 
1.697500e-01 5.435810e+03 
1.710300e-01 5.384766e+03 
1.722200e-01 5.338144e+03 
1.734400e-01 5.290519e+03 
1.746400e-01 5.244443e+03 
1.758700e-01 5.197792e+03 
1.770900e-01 5.151849e+03 
1.782700e-01 5.108146e+03 
1.794600e-01 5.064415e+03 
1.807000e-01 5.019347e+03 
1.819100e-01 4.976095e+03 
1.830100e-01 4.937461e+03 
1.842200e-01 4.895630e+03 
1.855000e-01 4.852122e+03 
1.867000e-01 4.812371e+03 
1.879200e-01 4.772595e+03 
1.890900e-01 4.735021e+03 
1.902800e-01 4.697292e+03 
1.915200e-01 4.658588e+03 
1.926900e-01 4.622748e+03 
1.939000e-01 4.586634e+03 
1.951700e-01 4.549317e+03 
1.963100e-01 4.516443e+03 
1.975100e-01 4.482659e+03 
1.987800e-01 4.447447e+03 
2.000100e-01 4.413897e+03 
2.012500e-01 4.380653e+03 
2.023400e-01 4.351843e+03 
2.036100e-01 4.318772e+03 
2.048900e-01 4.286033e+03 
2.060400e-01 4.257043e+03 
2.072200e-01 4.227715e+03 
2.084200e-01 4.198426e+03 
2.096900e-01 4.167875e+03 
2.109200e-01 4.138715e+03 
2.121100e-01 4.110774e+03 
2.132700e-01 4.083899e+03 
2.145200e-01 4.055337e+03 
2.157200e-01 4.028274e+03 
2.168800e-01 4.002451e+03 
2.180700e-01 3.976309e+03 
2.193400e-01 3.948786e+03 
2.206000e-01 3.921850e+03 
2.217500e-01 3.897592e+03 
2.229500e-01 3.872606e+03 
2.241400e-01 3.848237e+03 
2.253500e-01 3.823784e+03 
2.264900e-01 3.801038e+03 
2.277100e-01 3.777288e+03 
2.289900e-01 3.753020e+03 
2.301500e-01 3.731313e+03 
2.313600e-01 3.708955e+03 
2.325600e-01 3.687194e+03 
2.337700e-01 3.665528e+03 
2.350000e-01 3.643786e+03 
2.362000e-01 3.623103e+03 
2.374100e-01 3.602818e+03 
2.386500e-01 3.582293e+03 
2.399100e-01 3.561704e+03 
2.410400e-01 3.543510e+03 
2.422500e-01 3.524266e+03 
2.435000e-01 3.504632e+03 
2.447300e-01 3.485677e+03 
2.458700e-01 3.468810e+03 
2.470600e-01 3.451408e+03 
2.483300e-01 3.433065e+03 
2.495600e-01 3.415485e+03 
2.507600e-01 3.398490e+03 
2.519600e-01 3.381696e+03 
2.532200e-01 3.364274e+03 
2.543700e-01 3.348568e+03 
2.555500e-01 3.332639e+03 
2.568000e-01 3.315964e+03 
2.580100e-01 3.300014e+03 
2.592400e-01 3.283957e+03 
2.604100e-01 3.268845e+03 
2.616100e-01 3.253520e+03 
2.628400e-01 3.237992e+03 
2.640600e-01 3.222694e+03 
2.652200e-01 3.208281e+03 
2.664300e-01 3.193414e+03 
2.676500e-01 3.178592e+03 
2.688400e-01 3.164011e+03 
2.700700e-01 3.148929e+03 
2.712400e-01 3.134740e+03 
2.724800e-01 3.119866e+03 
2.736700e-01 3.105704e+03 
2.748800e-01 3.091411e+03 
2.761000e-01 3.077157e+03 
2.773200e-01 3.063059e+03 
2.785400e-01 3.048991e+03 
2.797000e-01 3.035499e+03 
2.808900e-01 3.021801e+03 
2.821400e-01 3.007566e+03 
2.833900e-01 2.993479e+03 
2.845500e-01 2.980385e+03 
2.857800e-01 2.966644e+03 
2.870300e-01 2.952829e+03 
2.882100e-01 2.939923e+03 
2.893900e-01 2.926960e+03 
2.906300e-01 2.913377e+03 
2.918900e-01 2.899720e+03 
2.930500e-01 2.887275e+03 
2.942500e-01 2.874533e+03 
2.954200e-01 2.862246e+03 
2.966500e-01 2.849457e+03 
2.978900e-01 2.836696e+03 
2.990400e-01 2.824978e+03 
3.002700e-01 2.812390e+03 
3.015100e-01 2.799741e+03 
3.026800e-01 2.787924e+03 
3.038500e-01 2.776219e+03 
3.050300e-01 2.764526e+03 
3.062600e-01 2.752518e+03 
3.075000e-01 2.740533e+03 
3.087000e-01 2.729047e+03 
3.099100e-01 2.717576e+03 
3.111200e-01 2.706178e+03 
3.123100e-01 2.695010e+03 
3.135300e-01 2.683668e+03 
3.147300e-01 2.672619e+03 
3.159900e-01 2.661128e+03 
3.171800e-01 2.650330e+03 
3.183700e-01 2.639598e+03 
3.196300e-01 2.628344e+03 
3.208400e-01 2.617638e+03 
3.220300e-01 2.607206e+03 
3.232000e-01 2.597073e+03 
3.244300e-01 2.586530e+03 
3.256700e-01 2.576001e+03 
3.269200e-01 2.565486e+03 
3.280800e-01 2.555818e+03 
3.292500e-01 2.546169e+03 
3.304800e-01 2.536122e+03 
3.317100e-01 2.526167e+03 
3.328900e-01 2.516702e+03 
3.340700e-01 2.507320e+03 
3.353600e-01 2.497183e+03 
3.365300e-01 2.488081e+03 
3.377100e-01 2.478981e+03 
3.389200e-01 2.469732e+03 
3.401600e-01 2.460337e+03 
3.413700e-01 2.451264e+03 
3.425300e-01 2.442650e+03 
3.437700e-01 2.433521e+03 
3.449800e-01 2.424691e+03 
3.461800e-01 2.416010e+03 
3.473600e-01 2.407554e+03 
3.485800e-01 2.398906e+03 
3.498100e-01 2.390262e+03 
3.510200e-01 2.381833e+03 
3.522000e-01 2.373682e+03 
3.533900e-01 2.365531e+03 
3.546400e-01 2.357142e+03 
3.558400e-01 2.349164e+03 
3.570600e-01 2.341121e+03 
3.582700e-01 2.333212e+03 
3.595000e-01 2.325240e+03 
3.607100e-01 2.317424e+03 
3.618900e-01 2.309832e+03 
3.631200e-01 2.301984e+03 
3.643200e-01 2.294392e+03 
3.655500e-01 2.286674e+03 
3.667300e-01 2.279331e+03 
3.679500e-01 2.271797e+03 
3.691900e-01 2.264204e+03 
3.703600e-01 2.257097e+03 
3.715700e-01 2.249806e+03 
3.727700e-01 2.242635e+03 
3.739900e-01 2.235414e+03 
3.752000e-01 2.228332e+03 
3.763900e-01 2.221422e+03 
3.775800e-01 2.214568e+03 
3.788200e-01 2.207482e+03 
3.800300e-01 2.200624e+03 
3.812100e-01 2.193981e+03 
3.824200e-01 2.187217e+03 
3.836100e-01 2.180617e+03 
3.848600e-01 2.173739e+03 
3.860400e-01 2.167298e+03 
3.872400e-01 2.160799e+03 
3.884600e-01 2.154257e+03 
3.896500e-01 2.147931e+03 
3.908700e-01 2.141495e+03 
3.920600e-01 2.135267e+03 
3.933100e-01 2.128776e+03 
3.945300e-01 2.122491e+03 
3.957200e-01 2.116346e+03 
3.969300e-01 2.110127e+03 
3.981700e-01 2.103804e+03 
3.993500e-01 2.097833e+03 
4.094840e-01 2.048366e+03 
4.272360e-01 1.967649e+03 
4.454600e-01 1.891332e+03 
4.630560e-01 1.823343e+03 
4.804610e-01 1.760252e+03 
4.980690e-01 1.701063e+03 
5.159230e-01 1.644505e+03 
5.317440e-01 1.597592e+03 
5.489640e-01 1.549174e+03 
5.671990e-01 1.500819e+03 
5.838690e-01 1.459165e+03 
6.018840e-01 1.416601e+03 
6.202330e-01 1.375177e+03 
6.379250e-01 1.337639e+03 
6.545410e-01 1.303807e+03 
6.714560e-01 1.270949e+03 
6.892080e-01 1.237863e+03 
7.066010e-01 1.207008e+03 
7.240540e-01 1.177249e+03 
7.420450e-01 1.147583e+03 
7.593780e-01 1.120345e+03 
7.764720e-01 1.094253e+03 
7.942840e-01 1.068052e+03 
8.116170e-01 1.043585e+03 
8.288310e-01 1.019986e+03 
8.462240e-01 9.970029e+02 
8.631980e-01 9.751955e+02 
8.810700e-01 9.530006e+02 
8.989410e-01 9.315410e+02 
9.166330e-01 9.110260e+02 
9.345640e-01 8.907498e+02 
9.515980e-01 8.721030e+02 
9.688720e-01 8.537336e+02 
9.865640e-01 8.354449e+02 
1.031870e+00 7.911023e+02 
1.063490e+00 7.621047e+02 
1.097920e+00 7.319745e+02 
1.134370e+00 7.019364e+02 
1.167730e+00 6.760304e+02 
1.203830e+00 6.493046e+02 
1.240470e+00 6.237651e+02 
1.275790e+00 6.003580e+02 
1.309140e+00 5.793607e+02 
1.342970e+00 5.591015e+02 
1.378420e+00 5.389102e+02 
1.413200e+00 5.201204e+02 
1.448110e+00 5.021532e+02 
1.484090e+00 4.845251e+02 
1.518820e+00 4.683146e+02 
1.552880e+00 4.532081e+02 
1.588630e+00 4.380365e+02 
1.623230e+00 4.240032e+02 
1.657720e+00 4.106678e+02 
1.692450e+00 3.978409e+02 
1.726400e+00 3.858340e+02 
1.762200e+00 3.737778e+02 
1.797880e+00 3.622225e+02 
1.833270e+00 3.513015e+02 
1.869070e+00 3.407111e+02 
1.903200e+00 3.310235e+02 
1.937740e+00 3.215984e+02 
1.973190e+00 3.123274e+02 
2.007440e+00 3.037614e+02 
2.042160e+00 2.954050e+02 
2.077900e+00 2.871287e+02 
2.112390e+00 2.794417e+02 
2.146220e+00 2.722243e+02 
2.181600e+00 2.649010e+02 
2.216930e+00 2.578863e+02 
2.250760e+00 2.514455e+02 
2.286500e+00 2.448832e+02 
2.321770e+00 2.386145e+02 
2.355950e+00 2.327817e+02 
2.391280e+00 2.269539e+02 
2.426240e+00 2.213835e+02 
2.460670e+00 2.160944e+02 
2.495640e+00 2.109190e+02 
2.531080e+00 2.058100e+02 
2.566220e+00 2.009352e+02 
2.600830e+00 1.963094e+02 
2.635080e+00 1.918941e+02 
2.670340e+00 1.874544e+02 
2.705970e+00 1.831303e+02 
2.740040e+00 1.791345e+02 
2.774520e+00 1.752076e+02 
2.809730e+00 1.713372e+02 
2.844390e+00 1.676498e+02 
2.879960e+00 1.639753e+02 
2.914860e+00 1.604759e+02 
2.949410e+00 1.571134e+02 
2.984440e+00 1.537987e+02 
3.019760e+00 1.505661e+02 
3.054730e+00 1.474659e+02 
3.089030e+00 1.445065e+02 
3.124060e+00 1.415769e+02 
3.159560e+00 1.387019e+02 
3.194710e+00 1.359309e+02 
3.229010e+00 1.333010e+02 
3.263320e+00 1.307368e+02 
3.297930e+00 1.282247e+02 
3.332830e+00 1.257677e+02 
3.368040e+00 1.233535e+02 
3.403300e+00 1.209996e+02 
3.438450e+00 1.187236e+02 
3.473060e+00 1.165439e+02 
3.508440e+00 1.143689e+02 
3.543110e+00 1.122928e+02 
3.577470e+00 1.102843e+02 
3.613040e+00 1.082605e+02 
3.648120e+00 1.063214e+02 
3.682910e+00 1.044456e+02 
3.718050e+00 1.025956e+02 
3.753320e+00 1.007881e+02 
3.787980e+00 9.905960e+01 
3.822290e+00 9.738852e+01 
3.857020e+00 9.573544e+01 
3.891920e+00 9.411625e+01 
3.926650e+00 9.254718e+01 
3.961970e+00 9.098829e+01 
3.997360e+00 8.946102e+01 
4.031670e+00 8.801586e+01 
4.066330e+00 8.659423e+01 
4.101420e+00 8.518799e+01 
4.136200e+00 8.383101e+01 
4.170810e+00 8.251080e+01 
4.206250e+00 8.118699e+01 
4.241580e+00 7.989648e+01 
4.276300e+00 7.865443e+01 
4.310970e+00 7.744009e+01 
4.346120e+00 7.623752e+01 
4.380600e+00 7.508634e+01 
4.414730e+00 7.397086e+01 
4.450350e+00 7.283626e+01 
4.485320e+00 7.174599e+01 
4.519810e+00 7.069155e+01 
4.555430e+00 6.962456e+01 
4.590870e+00 6.858649e+01 
4.625480e+00 6.759620e+01 
4.659910e+00 6.663080e+01 
4.695230e+00 6.566422e+01 
4.729960e+00 6.473340e+01 
4.764450e+00 6.382648e+01 
4.799530e+00 6.292098e+01 
4.834910e+00 6.202577e+01 
4.869700e+00 6.116585e+01 
4.904370e+00 6.032587e+01 
4.939450e+00 5.949180e+01 
4.973940e+00 5.868620e+01 
5.008430e+00 5.789569e+01 
5.043810e+00 5.710224e+01 
5.078840e+00 5.633272e+01 
5.113500e+00 5.558544e+01 
5.148890e+00 5.483963e+01 
5.184210e+00 5.410924e+01 
5.219060e+00 5.340139e+01 
5.253660e+00 5.271027e+01 
5.288570e+00 5.202545e+01 
5.323420e+00 5.135544e+01 
5.358440e+00 5.069571e+01 
5.393590e+00 5.004528e+01 
5.428310e+00 4.941591e+01 
5.462800e+00 4.880246e+01 
5.497640e+00 4.819344e+01 
5.532670e+00 4.759075e+01 
5.567280e+00 4.700518e+01 
5.602000e+00 4.642769e+01 
5.637270e+00 4.585305e+01 
5.672410e+00 4.529071e+01 
5.707020e+00 4.474612e+01 
5.742040e+00 4.420628e+01 
5.777430e+00 4.367025e+01 
5.812210e+00 4.315215e+01 
5.846820e+00 4.264412e+01 
5.881610e+00 4.214150e+01 
5.916510e+00 4.164543e+01 
5.951600e+00 4.115422e+01 
5.986560e+00 4.067246e+01 
6.021830e+00 4.019423e+01 
6.056490e+00 3.973282e+01 
6.091160e+00 3.927940e+01 
6.125830e+00 3.883304e+01 
6.161090e+00 3.838678e+01 
6.195760e+00 3.795608e+01 
6.230420e+00 3.753210e+01 
6.265690e+00 3.710726e+01 
6.300950e+00 3.668860e+01 
6.335620e+00 3.628320e+01 
6.370880e+00 3.587716e+01 
6.405550e+00 3.548505e+01 
6.440220e+00 3.509924e+01 
6.475480e+00 3.471271e+01 
6.510150e+00 3.433813e+01 
6.544810e+00 3.396878e+01 
6.580080e+00 3.359845e+01 
6.614750e+00 3.323976e+01 
6.649410e+00 3.288772e+01 
6.684080e+00 3.254090e+01 
6.719340e+00 3.219326e+01 
6.754010e+00 3.185619e+01 
6.788680e+00 3.152351e+01 
6.823940e+00 3.118998e+01 
6.859800e+00 3.085566e+01 
6.894470e+00 3.053672e+01 
6.929140e+00 3.022211e+01 
6.963800e+00 2.991195e+01 
6.999070e+00 2.960082e+01 
7.033730e+00 2.930060e+01 
7.068400e+00 2.900440e+01 
7.103660e+00 2.870728e+01 
7.138330e+00 2.841902e+01 
7.173600e+00 2.812954e+01 
7.208260e+00 2.784891e+01 
7.243530e+00 2.756720e+01 
7.277600e+00 2.729936e+01 
7.312860e+00 2.702643e+01 
7.348120e+00 2.675717e+01 
7.382790e+00 2.649592e+01 
7.417460e+00 2.623788e+01 
7.452720e+00 2.597879e+01 
7.487390e+00 2.572737e+01 
7.522650e+00 2.547501e+01 
7.557320e+00 2.522991e+01 
7.591990e+00 2.498790e+01 
7.627250e+00 2.474494e+01 
7.662510e+00 2.450513e+01 
7.697180e+00 2.427218e+01 
7.731850e+00 2.404210e+01 
7.766510e+00 2.381499e+01 
7.801180e+00 2.359067e+01 
7.836440e+00 2.336610e+01 
7.871110e+00 2.314848e+01 
7.906380e+00 2.292987e+01 
7.941040e+00 2.271771e+01 
7.976310e+00 2.250383e+01 
8.011570e+00 2.229189e+01 
8.046240e+00 2.208606e+01 
8.080900e+00 2.188281e+01 
8.115570e+00 2.168218e+01 
8.150830e+00 2.148144e+01 
8.185500e+00 2.128645e+01 
8.220770e+00 2.109049e+01 
8.255430e+00 2.090024e+01 
8.290100e+00 2.071306e+01 
8.324770e+00 2.052820e+01 
8.359430e+00 2.034556e+01 
8.394700e+00 2.016192e+01 
8.429960e+00 1.997995e+01 
8.464630e+00 1.980258e+01 
8.499890e+00 1.962430e+01 
8.534560e+00 1.945107e+01 
8.569200e+00 1.927999e+01 
