# Parameters:
# omega_b = 0.022270, omega_m = 0.141300, n_s = 0.970000, h = 67.900000, w = -1.000000, sigma_8 = 0.815400
# z = 0.000000
#
# k[1/Mpc] # P(k):
8.694000e-04 1.532159e+04 
2.077466e-03 3.290404e+04 
3.285532e-03 4.671727e+04 
4.493598e-03 5.738614e+04 
5.701664e-03 6.534956e+04 
6.909730e-03 7.103489e+04 
8.117797e-03 7.493196e+04 
9.325863e-03 7.729159e+04 
1.053393e-02 7.836683e+04 
1.174199e-02 7.839315e+04 
1.295006e-02 7.752055e+04 
1.415813e-02 7.595630e+04 
1.536619e-02 7.387446e+04 
1.657426e-02 7.140160e+04 
1.778233e-02 6.866335e+04 
1.899039e-02 6.580427e+04 
2.019846e-02 6.287569e+04 
2.140652e-02 5.996023e+04 
2.261459e-02 5.711887e+04 
2.382266e-02 5.441017e+04 
2.503072e-02 5.186983e+04 
2.623879e-02 4.951386e+04 
2.744685e-02 4.734708e+04 
2.865492e-02 4.537428e+04 
2.986299e-02 4.358800e+04 
3.100100e-02 4.207288e+04 
3.220400e-02 4.063237e+04 
3.288100e-02 3.989120e+04 
3.424300e-02 3.853476e+04 
3.555100e-02 3.738658e+04 
3.686000e-02 3.635602e+04 
3.795000e-02 3.557699e+04 
3.929100e-02 3.470254e+04 
4.039800e-02 3.402972e+04 
4.164000e-02 3.330619e+04 
4.294400e-02 3.256446e+04 
4.415000e-02 3.189708e+04 
4.542900e-02 3.117367e+04 
4.660900e-02 3.049958e+04 
4.782300e-02 2.977641e+04 
4.892900e-02 2.910233e+04 
5.031200e-02 2.823296e+04 
5.155900e-02 2.742436e+04 
5.238100e-02 2.688266e+04 
5.378200e-02 2.595091e+04 
5.513400e-02 2.503978e+04 
5.627600e-02 2.427470e+04 
5.735300e-02 2.356440e+04 
5.870100e-02 2.269132e+04 
5.988700e-02 2.194981e+04 
6.113500e-02 2.120150e+04 
6.225900e-02 2.055853e+04 
6.340100e-02 1.993754e+04 
6.480200e-02 1.922604e+04 
6.601100e-02 1.865900e+04 
6.725500e-02 1.812040e+04 
6.829100e-02 1.771094e+04 
6.958600e-02 1.723797e+04 
7.071100e-02 1.686362e+04 
7.192300e-02 1.649466e+04 
7.307400e-02 1.617522e+04 
7.412300e-02 1.590782e+04 
7.550400e-02 1.558837e+04 
7.663100e-02 1.534790e+04 
7.791200e-02 1.509502e+04 
7.912700e-02 1.487160e+04 
8.027600e-02 1.466821e+04 
8.138400e-02 1.447772e+04 
8.272200e-02 1.425263e+04 
8.406100e-02 1.402896e+04 
8.534100e-02 1.381210e+04 
8.653800e-02 1.360309e+04 
8.759800e-02 1.341568e+04 
8.900300e-02 1.316199e+04 
9.009000e-02 1.295865e+04 
9.113300e-02 1.275922e+04 
9.239600e-02 1.251574e+04 
9.358000e-02 1.228241e+04 
9.496100e-02 1.200895e+04 
9.608400e-02 1.178758e+04 
9.727500e-02 1.155482e+04 
9.852600e-02 1.131151e+04 
9.973800e-02 1.108243e+04 
1.009000e-01 1.086882e+04 
1.020900e-01 1.065647e+04 
1.034000e-01 1.043265e+04 
1.046000e-01 1.023707e+04 
1.057200e-01 1.006483e+04 
1.069100e-01 9.889402e+03 
1.082500e-01 9.706467e+03 
1.093900e-01 9.559114e+03 
1.105400e-01 9.416538e+03 
1.116900e-01 9.285671e+03 
1.129600e-01 9.147488e+03 
1.142000e-01 9.022131e+03 
1.153300e-01 8.913048e+03 
1.166400e-01 8.793358e+03 
1.177800e-01 8.692814e+03 
1.190000e-01 8.588276e+03 
1.201200e-01 8.495856e+03 
1.213400e-01 8.397788e+03 
1.227100e-01 8.288286e+03 
1.238900e-01 8.195744e+03 
1.250700e-01 8.103336e+03 
1.263200e-01 8.006435e+03 
1.275500e-01 7.910428e+03 
1.287500e-01 7.817776e+03 
1.299900e-01 7.722412e+03 
1.311300e-01 7.634899e+03 
1.323500e-01 7.540596e+03 
1.335900e-01 7.446109e+03 
1.347100e-01 7.361539e+03 
1.359800e-01 7.267050e+03 
1.372100e-01 7.176257e+03 
1.384300e-01 7.087795e+03 
1.395700e-01 7.005972e+03 
1.407700e-01 6.921545e+03 
1.420300e-01 6.834124e+03 
1.432800e-01 6.749275e+03 
1.444500e-01 6.672680e+03 
1.456300e-01 6.596968e+03 
1.468900e-01 6.517973e+03 
1.480500e-01 6.446769e+03 
1.491700e-01 6.379913e+03 
1.503800e-01 6.309823e+03 
1.516400e-01 6.238626e+03 
1.528200e-01 6.174696e+03 
1.540200e-01 6.110914e+03 
1.551900e-01 6.051227e+03 
1.564300e-01 5.989487e+03 
1.576600e-01 5.929670e+03 
1.588700e-01 5.872234e+03 
1.600900e-01 5.815459e+03 
1.612700e-01 5.762656e+03 
1.625400e-01 5.706873e+03 
1.637600e-01 5.654082e+03 
1.649500e-01 5.603391e+03 
1.662200e-01 5.550269e+03 
1.674000e-01 5.501786e+03 
1.685000e-01 5.457338e+03 
1.697500e-01 5.407445e+03 
1.710300e-01 5.357043e+03 
1.722200e-01 5.311006e+03 
1.734400e-01 5.263915e+03 
1.746400e-01 5.218353e+03 
1.758700e-01 5.172199e+03 
1.770900e-01 5.126702e+03 
1.782700e-01 5.083422e+03 
1.794600e-01 5.040078e+03 
1.807000e-01 4.995385e+03 
1.819100e-01 4.952493e+03 
1.830100e-01 4.914146e+03 
1.842200e-01 4.872620e+03 
1.855000e-01 4.829429e+03 
1.867000e-01 4.789946e+03 
1.879200e-01 4.750437e+03 
1.890900e-01 4.713114e+03 
1.902800e-01 4.675632e+03 
1.915200e-01 4.637181e+03 
1.926900e-01 4.601579e+03 
1.939000e-01 4.565712e+03 
1.951700e-01 4.528651e+03 
1.963100e-01 4.496007e+03 
1.975100e-01 4.462474e+03 
1.987800e-01 4.427523e+03 
2.000100e-01 4.394227e+03 
2.012500e-01 4.361249e+03 
2.023400e-01 4.332668e+03 
2.036100e-01 4.299864e+03 
2.048900e-01 4.267402e+03 
2.060400e-01 4.238657e+03 
2.072200e-01 4.209580e+03 
2.084200e-01 4.180552e+03 
2.096900e-01 4.150273e+03 
2.109200e-01 4.121374e+03 
2.121100e-01 4.093682e+03 
2.132700e-01 4.067046e+03 
2.145200e-01 4.038738e+03 
2.157200e-01 4.011912e+03 
2.168800e-01 3.986313e+03 
2.180700e-01 3.960398e+03 
2.193400e-01 3.933108e+03 
2.206000e-01 3.906388e+03 
2.217500e-01 3.882326e+03 
2.229500e-01 3.857541e+03 
2.241400e-01 3.833348e+03 
2.253500e-01 3.809070e+03 
2.264900e-01 3.786487e+03 
2.277100e-01 3.762895e+03 
2.289900e-01 3.738771e+03 
2.301500e-01 3.717194e+03 
2.313600e-01 3.694970e+03 
2.325600e-01 3.673311e+03 
2.337700e-01 3.651748e+03 
2.350000e-01 3.630107e+03 
2.362000e-01 3.609509e+03 
2.374100e-01 3.589292e+03 
2.386500e-01 3.568836e+03 
2.399100e-01 3.548316e+03 
2.410400e-01 3.530163e+03 
2.422500e-01 3.510959e+03 
2.435000e-01 3.491368e+03 
2.447300e-01 3.472449e+03 
2.458700e-01 3.455603e+03 
2.470600e-01 3.438222e+03 
2.483300e-01 3.419901e+03 
2.495600e-01 3.402339e+03 
2.507600e-01 3.385357e+03 
2.519600e-01 3.368575e+03 
2.532200e-01 3.351167e+03 
2.543700e-01 3.335474e+03 
2.555500e-01 3.319560e+03 
2.568000e-01 3.302900e+03 
2.580100e-01 3.286964e+03 
2.592400e-01 3.270930e+03 
2.604100e-01 3.255842e+03 
2.616100e-01 3.240541e+03 
2.628400e-01 3.225038e+03 
2.640600e-01 3.209778e+03 
2.652200e-01 3.195405e+03 
2.664300e-01 3.180579e+03 
2.676500e-01 3.165799e+03 
2.688400e-01 3.151271e+03 
2.700700e-01 3.136251e+03 
2.712400e-01 3.122121e+03 
2.724800e-01 3.107309e+03 
2.736700e-01 3.093215e+03 
2.748800e-01 3.079002e+03 
2.761000e-01 3.064828e+03 
2.773200e-01 3.050808e+03 
2.785400e-01 3.036824e+03 
2.797000e-01 3.023423e+03 
2.808900e-01 3.009819e+03 
2.821400e-01 2.995681e+03 
2.833900e-01 2.981690e+03 
2.845500e-01 2.968699e+03 
2.857800e-01 2.955066e+03 
2.870300e-01 2.941359e+03 
2.882100e-01 2.928554e+03 
2.893900e-01 2.915699e+03 
2.906300e-01 2.902234e+03 
2.918900e-01 2.888696e+03 
2.930500e-01 2.876360e+03 
2.942500e-01 2.863730e+03 
2.954200e-01 2.851557e+03 
2.966500e-01 2.838887e+03 
2.978900e-01 2.826245e+03 
2.990400e-01 2.814636e+03 
3.002700e-01 2.802168e+03 
3.015100e-01 2.789641e+03 
3.026800e-01 2.777938e+03 
3.038500e-01 2.766345e+03 
3.050300e-01 2.754766e+03 
3.062600e-01 2.742878e+03 
3.075000e-01 2.731011e+03 
3.087000e-01 2.719640e+03 
3.099100e-01 2.708284e+03 
3.111200e-01 2.697000e+03 
3.123100e-01 2.685943e+03 
3.135300e-01 2.674715e+03 
3.147300e-01 2.663775e+03 
3.159900e-01 2.652400e+03 
3.171800e-01 2.641709e+03 
3.183700e-01 2.631085e+03 
3.196300e-01 2.619943e+03 
3.208400e-01 2.609344e+03 
3.220300e-01 2.599017e+03 
3.232000e-01 2.588983e+03 
3.244300e-01 2.578544e+03 
3.256700e-01 2.568118e+03 
3.269200e-01 2.557706e+03 
3.280800e-01 2.548133e+03 
3.292500e-01 2.538577e+03 
3.304800e-01 2.528626e+03 
3.317100e-01 2.518766e+03 
3.328900e-01 2.509393e+03 
3.340700e-01 2.500101e+03 
3.353600e-01 2.490059e+03 
3.365300e-01 2.481044e+03 
3.377100e-01 2.472030e+03 
3.389200e-01 2.462868e+03 
3.401600e-01 2.453562e+03 
3.413700e-01 2.444573e+03 
3.425300e-01 2.436035e+03 
3.437700e-01 2.426989e+03 
3.449800e-01 2.418239e+03 
3.461800e-01 2.409636e+03 
3.473600e-01 2.401256e+03 
3.485800e-01 2.392683e+03 
3.498100e-01 2.384115e+03 
3.510200e-01 2.375760e+03 
3.522000e-01 2.367680e+03 
3.533900e-01 2.359600e+03 
3.546400e-01 2.351282e+03 
3.558400e-01 2.343371e+03 
3.570600e-01 2.335396e+03 
3.582700e-01 2.327554e+03 
3.595000e-01 2.319650e+03 
3.607100e-01 2.311898e+03 
3.618900e-01 2.304368e+03 
3.631200e-01 2.296584e+03 
3.643200e-01 2.289053e+03 
3.655500e-01 2.281398e+03 
3.667300e-01 2.274114e+03 
3.679500e-01 2.266639e+03 
3.691900e-01 2.259104e+03 
3.703600e-01 2.252053e+03 
3.715700e-01 2.244819e+03 
3.727700e-01 2.237703e+03 
3.739900e-01 2.230538e+03 
3.752000e-01 2.223508e+03 
3.763900e-01 2.216651e+03 
3.775800e-01 2.209847e+03 
3.788200e-01 2.202815e+03 
3.800300e-01 2.196008e+03 
3.812100e-01 2.189414e+03 
3.824200e-01 2.182699e+03 
3.836100e-01 2.176147e+03 
3.848600e-01 2.169320e+03 
3.860400e-01 2.162927e+03 
3.872400e-01 2.156475e+03 
3.884600e-01 2.149980e+03 
3.896500e-01 2.143698e+03 
3.908700e-01 2.137309e+03 
3.920600e-01 2.131125e+03 
3.933100e-01 2.124680e+03 
3.945300e-01 2.118440e+03 
3.957200e-01 2.112337e+03 
3.969300e-01 2.106162e+03 
3.981700e-01 2.099883e+03 
3.993500e-01 2.093953e+03 
4.094840e-01 2.044827e+03 
4.272360e-01 1.964660e+03 
4.454600e-01 1.888868e+03 
4.630560e-01 1.821356e+03 
4.804610e-01 1.758721e+03 
4.980690e-01 1.699977e+03 
5.159230e-01 1.643851e+03 
5.317440e-01 1.597307e+03 
5.489640e-01 1.549272e+03 
5.671990e-01 1.501305e+03 
5.838690e-01 1.459985e+03 
6.018840e-01 1.417763e+03 
6.202330e-01 1.376665e+03 
6.379250e-01 1.339422e+03 
6.545410e-01 1.305849e+03 
6.714560e-01 1.273238e+03 
6.892080e-01 1.240393e+03 
7.066010e-01 1.209758e+03 
7.240540e-01 1.180204e+03 
7.420450e-01 1.150732e+03 
7.593780e-01 1.123668e+03 
7.764720e-01 1.097734e+03 
7.942840e-01 1.071685e+03 
8.116170e-01 1.047356e+03 
8.288310e-01 1.023881e+03 
8.462240e-01 1.001014e+03 
8.631980e-01 9.793103e+02 
8.810700e-01 9.572148e+02 
8.989410e-01 9.358461e+02 
9.166330e-01 9.154133e+02 
9.345640e-01 8.952114e+02 
9.515980e-01 8.766287e+02 
9.688720e-01 8.583189e+02 
9.865640e-01 8.400837e+02 
1.031870e+00 7.958538e+02 
1.063490e+00 7.669143e+02 
1.097920e+00 7.368312e+02 
1.134370e+00 7.068276e+02 
1.167730e+00 6.809417e+02 
1.203830e+00 6.542243e+02 
1.240470e+00 6.286840e+02 
1.275790e+00 6.052656e+02 
1.309140e+00 5.842513e+02 
1.342970e+00 5.639681e+02 
1.378420e+00 5.437464e+02 
1.413200e+00 5.249227e+02 
1.448110e+00 5.069167e+02 
1.484090e+00 4.892451e+02 
1.518820e+00 4.729899e+02 
1.552880e+00 4.578374e+02 
1.588630e+00 4.426148e+02 
1.623230e+00 4.285304e+02 
1.657720e+00 4.151432e+02 
1.692450e+00 4.022628e+02 
1.726400e+00 3.902030e+02 
1.762200e+00 3.780905e+02 
1.797880e+00 3.664779e+02 
1.833270e+00 3.555008e+02 
1.869070e+00 3.448531e+02 
1.903200e+00 3.351108e+02 
1.937740e+00 3.256304e+02 
1.973190e+00 3.163031e+02 
2.007440e+00 3.076834e+02 
2.042160e+00 2.992724e+02 
2.077900e+00 2.909406e+02 
2.112390e+00 2.832003e+02 
2.146220e+00 2.759316e+02 
2.181600e+00 2.685546e+02 
2.216930e+00 2.614872e+02 
2.250760e+00 2.549970e+02 
2.286500e+00 2.483830e+02 
2.321770e+00 2.420637e+02 
2.355950e+00 2.361829e+02 
2.391280e+00 2.303061e+02 
2.426240e+00 2.246877e+02 
2.460670e+00 2.193522e+02 
2.495640e+00 2.141308e+02 
2.531080e+00 2.089751e+02 
2.566220e+00 2.040549e+02 
2.600830e+00 1.993856e+02 
2.635080e+00 1.949281e+02 
2.670340e+00 1.904450e+02 
2.705970e+00 1.860781e+02 
2.740040e+00 1.820422e+02 
2.774520e+00 1.780752e+02 
2.809730e+00 1.741648e+02 
2.844390e+00 1.704389e+02 
2.879960e+00 1.667254e+02 
2.914860e+00 1.631882e+02 
2.949410e+00 1.597890e+02 
2.984440e+00 1.564376e+02 
3.019760e+00 1.531689e+02 
3.054730e+00 1.500338e+02 
3.089030e+00 1.470403e+02 
3.124060e+00 1.440768e+02 
3.159560e+00 1.411682e+02 
3.194710e+00 1.383644e+02 
3.229010e+00 1.357031e+02 
3.263320e+00 1.331078e+02 
3.297930e+00 1.305650e+02 
3.332830e+00 1.280779e+02 
3.368040e+00 1.256336e+02 
3.403300e+00 1.232501e+02 
3.438450e+00 1.209452e+02 
3.473060e+00 1.187377e+02 
3.508440e+00 1.165346e+02 
3.543110e+00 1.144315e+02 
3.577470e+00 1.123965e+02 
3.613040e+00 1.103459e+02 
3.648120e+00 1.083809e+02 
3.682910e+00 1.064798e+02 
3.718050e+00 1.046047e+02 
3.753320e+00 1.027725e+02 
3.787980e+00 1.010202e+02 
3.822290e+00 9.932589e+01 
3.857020e+00 9.764964e+01 
3.891920e+00 9.600762e+01 
3.926650e+00 9.441628e+01 
3.961970e+00 9.283511e+01 
3.997360e+00 9.128582e+01 
4.031670e+00 8.981972e+01 
4.066330e+00 8.837729e+01 
4.101420e+00 8.695041e+01 
4.136200e+00 8.557338e+01 
4.170810e+00 8.423360e+01 
4.206250e+00 8.288994e+01 
4.241580e+00 8.157998e+01 
4.276300e+00 8.031905e+01 
4.310970e+00 7.908612e+01 
4.346120e+00 7.786505e+01 
4.380600e+00 7.669606e+01 
4.414730e+00 7.556327e+01 
4.450350e+00 7.441092e+01 
4.485320e+00 7.330355e+01 
4.519810e+00 7.223239e+01 
4.555430e+00 7.114838e+01 
4.590870e+00 7.009369e+01 
4.625480e+00 6.908745e+01 
4.659910e+00 6.810646e+01 
4.695230e+00 6.712415e+01 
4.729960e+00 6.617812e+01 
4.764450e+00 6.525630e+01 
4.799530e+00 6.433583e+01 
4.834910e+00 6.342578e+01 
4.869700e+00 6.255146e+01 
4.904370e+00 6.169736e+01 
4.939450e+00 6.084921e+01 
4.973940e+00 6.002992e+01 
5.008430e+00 5.922593e+01 
5.043810e+00 5.841887e+01 
5.078840e+00 5.763607e+01 
5.113500e+00 5.687587e+01 
5.148890e+00 5.611708e+01 
5.184210e+00 5.537393e+01 
5.219060e+00 5.465366e+01 
5.253660e+00 5.395031e+01 
5.288570e+00 5.325335e+01 
5.323420e+00 5.257139e+01 
5.358440e+00 5.189983e+01 
5.393590e+00 5.123771e+01 
5.428310e+00 5.059695e+01 
5.462800e+00 4.997236e+01 
5.497640e+00 4.935225e+01 
5.532670e+00 4.873849e+01 
5.567280e+00 4.814211e+01 
5.602000e+00 4.755393e+01 
5.637270e+00 4.696859e+01 
5.672410e+00 4.639575e+01 
5.707020e+00 4.584096e+01 
5.742040e+00 4.529094e+01 
5.777430e+00 4.474477e+01 
5.812210e+00 4.421686e+01 
5.846820e+00 4.369911e+01 
5.881610e+00 4.318683e+01 
5.916510e+00 4.268121e+01 
5.951600e+00 4.218046e+01 
5.986560e+00 4.168932e+01 
6.021830e+00 4.120175e+01 
6.056490e+00 4.073127e+01 
6.091160e+00 4.026890e+01 
6.125830e+00 3.981372e+01 
6.161090e+00 3.935859e+01 
6.195760e+00 3.891929e+01 
6.230420e+00 3.848683e+01 
6.265690e+00 3.805347e+01 
6.300950e+00 3.762632e+01 
6.335620e+00 3.721269e+01 
6.370880e+00 3.679838e+01 
6.405550e+00 3.639824e+01 
6.440220e+00 3.600448e+01 
6.475480e+00 3.560998e+01 
6.510150e+00 3.522765e+01 
6.544810e+00 3.485059e+01 
6.580080e+00 3.447253e+01 
6.614750e+00 3.410633e+01 
6.649410e+00 3.374686e+01 
6.684080e+00 3.339270e+01 
6.719340e+00 3.303770e+01 
6.754010e+00 3.269344e+01 
6.788680e+00 3.235362e+01 
6.823940e+00 3.201292e+01 
6.859800e+00 3.167140e+01 
6.894470e+00 3.134553e+01 
6.929140e+00 3.102406e+01 
6.963800e+00 3.070713e+01 
6.999070e+00 3.038919e+01 
7.033730e+00 3.008234e+01 
7.068400e+00 2.977959e+01 
7.103660e+00 2.947591e+01 
7.138330e+00 2.918124e+01 
7.173600e+00 2.888526e+01 
7.208260e+00 2.859834e+01 
7.243530e+00 2.831031e+01 
7.277600e+00 2.803641e+01 
7.312860e+00 2.775729e+01 
7.348120e+00 2.748190e+01 
7.382790e+00 2.721470e+01 
7.417460e+00 2.695074e+01 
7.452720e+00 2.668569e+01 
7.487390e+00 2.642847e+01 
7.522650e+00 2.617028e+01 
7.557320e+00 2.591948e+01 
7.591990e+00 2.567181e+01 
7.627250e+00 2.542316e+01 
7.662510e+00 2.517773e+01 
7.697180e+00 2.493927e+01 
7.731850e+00 2.470374e+01 
7.766510e+00 2.447124e+01 
7.801180e+00 2.424158e+01 
7.836440e+00 2.401164e+01 
7.871110e+00 2.378881e+01 
7.906380e+00 2.356494e+01 
7.941040e+00 2.334767e+01 
7.976310e+00 2.312861e+01 
8.011570e+00 2.291150e+01 
8.046240e+00 2.270065e+01 
8.080900e+00 2.249243e+01 
8.115570e+00 2.228688e+01 
8.150830e+00 2.208120e+01 
8.185500e+00 2.188140e+01 
8.220770e+00 2.168060e+01 
8.255430e+00 2.148565e+01 
8.290100e+00 2.129379e+01 
8.324770e+00 2.110430e+01 
8.359430e+00 2.091710e+01 
8.394700e+00 2.072886e+01 
8.429960e+00 2.054231e+01 
8.464630e+00 2.036044e+01 
8.499890e+00 2.017764e+01 
8.534560e+00 2.000001e+01 
8.569200e+00 1.982458e+01 
