# Parameters:
# omega_b = 0.022270, omega_m = 0.141300, n_s = 0.870000, h = 67.900000, w = -1.000000, sigma_8 = 0.815400
# z = 0.000000
#
# k[1/Mpc] # P(k):
8.694000e-04 2.475042e+04 
2.077466e-03 4.866592e+04 
3.285532e-03 6.600782e+04 
4.493598e-03 7.859080e+04 
5.701664e-03 8.740512e+04 
6.909730e-03 9.322282e+04 
8.117797e-03 9.679240e+04 
9.325863e-03 9.849635e+04 
1.053393e-02 9.869166e+04 
1.174199e-02 9.769415e+04 
1.295006e-02 9.570220e+04 
1.415813e-02 9.297582e+04 
1.536619e-02 8.972726e+04 
1.657426e-02 8.610772e+04 
1.778233e-02 8.226585e+04 
1.899039e-02 7.836472e+04 
2.019846e-02 7.445401e+04 
2.140652e-02 7.062354e+04 
2.261459e-02 6.694044e+04 
2.382266e-02 6.346546e+04 
2.503072e-02 6.023205e+04 
2.623879e-02 5.725221e+04 
2.744685e-02 5.452539e+04 
2.865492e-02 5.205071e+04 
2.986299e-02 4.981497e+04 
3.100100e-02 4.791997e+04 
3.220400e-02 4.611789e+04 
3.288100e-02 4.518981e+04 
3.424300e-02 4.348835e+04 
3.555100e-02 4.204358e+04 
3.686000e-02 4.074408e+04 
3.795000e-02 3.975933e+04 
3.929100e-02 3.865174e+04 
4.039800e-02 3.779982e+04 
4.164000e-02 3.688707e+04 
4.294400e-02 3.595799e+04 
4.415000e-02 3.512737e+04 
4.542900e-02 3.423833e+04 
4.660900e-02 3.341851e+04 
4.782300e-02 3.255150e+04 
4.892900e-02 3.175185e+04 
5.031200e-02 3.073274e+04 
5.155900e-02 2.979639e+04 
5.238100e-02 2.917428e+04 
5.378200e-02 2.811244e+04 
5.513400e-02 2.708396e+04 
5.627600e-02 2.622640e+04 
5.735300e-02 2.543431e+04 
5.870100e-02 2.446561e+04 
5.988700e-02 2.364606e+04 
6.113500e-02 2.282137e+04 
6.225900e-02 2.211420e+04 
6.340100e-02 2.143172e+04 
6.480200e-02 2.064971e+04 
6.601100e-02 2.002551e+04 
6.725500e-02 1.943098e+04 
6.829100e-02 1.897688e+04 
6.958600e-02 1.845026e+04 
7.071100e-02 1.803076e+04 
7.192300e-02 1.761460e+04 
7.307400e-02 1.725172e+04 
7.412300e-02 1.694584e+04 
7.550400e-02 1.657732e+04 
7.663100e-02 1.629822e+04 
7.791200e-02 1.600288e+04 
7.912700e-02 1.574108e+04 
8.027600e-02 1.550307e+04 
8.138400e-02 1.528077e+04 
8.272200e-02 1.501948e+04 
8.406100e-02 1.476198e+04 
8.534100e-02 1.451530e+04 
8.653800e-02 1.428049e+04 
8.759800e-02 1.407165e+04 
8.900300e-02 1.379161e+04 
9.009000e-02 1.356939e+04 
9.113300e-02 1.335311e+04 
9.239600e-02 1.309042e+04 
9.358000e-02 1.284026e+04 
9.496100e-02 1.254882e+04 
9.608400e-02 1.231372e+04 
9.727500e-02 1.206715e+04 
9.852600e-02 1.181040e+04 
9.973800e-02 1.156894e+04 
1.009000e-01 1.134401e+04 
1.020900e-01 1.112058e+04 
1.034000e-01 1.088501e+04 
1.046000e-01 1.067904e+04 
1.057200e-01 1.049723e+04 
1.069100e-01 1.031183e+04 
1.082500e-01 1.011772e+04 
1.093900e-01 9.960821e+03 
1.105400e-01 9.808686e+03 
1.116900e-01 9.668099e+03 
1.129600e-01 9.519320e+03 
1.142000e-01 9.383474e+03 
1.153300e-01 9.264946e+03 
1.166400e-01 9.134384e+03 
1.177800e-01 9.024433e+03 
1.190000e-01 8.909983e+03 
1.201200e-01 8.808775e+03 
1.213400e-01 8.701373e+03 
1.227100e-01 8.581870e+03 
1.238900e-01 8.481012e+03 
1.250700e-01 8.380770e+03 
1.263200e-01 8.275914e+03 
1.275500e-01 8.172597e+03 
1.287500e-01 8.073182e+03 
1.299900e-01 7.971313e+03 
1.311300e-01 7.878141e+03 
1.323500e-01 7.778200e+03 
1.335900e-01 7.678301e+03 
1.347100e-01 7.589196e+03 
1.359800e-01 7.489797e+03 
1.372100e-01 7.394588e+03 
1.384300e-01 7.301913e+03 
1.395700e-01 7.216396e+03 
1.407700e-01 7.128174e+03 
1.420300e-01 7.036950e+03 
1.432800e-01 6.948414e+03 
1.444500e-01 6.868483e+03 
1.456300e-01 6.789476e+03 
1.468900e-01 6.706967e+03 
1.480500e-01 6.632576e+03 
1.491700e-01 6.562656e+03 
1.503800e-01 6.489261e+03 
1.516400e-01 6.414664e+03 
1.528200e-01 6.347470e+03 
1.540200e-01 6.280436e+03 
1.551900e-01 6.217506e+03 
1.564300e-01 6.152365e+03 
1.576600e-01 6.089164e+03 
1.588700e-01 6.028372e+03 
1.600900e-01 5.968272e+03 
1.612700e-01 5.912225e+03 
1.625400e-01 5.853015e+03 
1.637600e-01 5.796981e+03 
1.649500e-01 5.743177e+03 
1.662200e-01 5.686802e+03 
1.674000e-01 5.635392e+03 
1.685000e-01 5.588262e+03 
1.697500e-01 5.535434e+03 
1.710300e-01 5.482137e+03 
1.722200e-01 5.433459e+03 
1.734400e-01 5.383870e+03 
1.746400e-01 5.335900e+03 
1.758700e-01 5.287378e+03 
1.770900e-01 5.239691e+03 
1.782700e-01 5.194328e+03 
1.794600e-01 5.149022e+03 
1.807000e-01 5.102388e+03 
1.819100e-01 5.057634e+03 
1.830100e-01 5.017743e+03 
1.842200e-01 4.974566e+03 
1.855000e-01 4.929663e+03 
1.867000e-01 4.888713e+03 
1.879200e-01 4.847737e+03 
1.890900e-01 4.809037e+03 
1.902800e-01 4.770216e+03 
1.915200e-01 4.730393e+03 
1.926900e-01 4.693517e+03 
1.939000e-01 4.656356e+03 
1.951700e-01 4.617959e+03 
1.963100e-01 4.584123e+03 
1.975100e-01 4.549326e+03 
1.987800e-01 4.513058e+03 
2.000100e-01 4.478491e+03 
2.012500e-01 4.444212e+03 
2.023400e-01 4.414504e+03 
2.036100e-01 4.380394e+03 
2.048900e-01 4.346584e+03 
2.060400e-01 4.316646e+03 
2.072200e-01 4.286355e+03 
2.084200e-01 4.256045e+03 
2.096900e-01 4.224429e+03 
2.109200e-01 4.194253e+03 
2.121100e-01 4.165312e+03 
2.132700e-01 4.137473e+03 
2.145200e-01 4.107887e+03 
2.157200e-01 4.079834e+03 
2.168800e-01 4.053057e+03 
2.180700e-01 4.025949e+03 
2.193400e-01 3.997407e+03 
2.206000e-01 3.969472e+03 
2.217500e-01 3.944315e+03 
2.229500e-01 3.918403e+03 
2.241400e-01 3.893129e+03 
2.253500e-01 3.867769e+03 
2.264900e-01 3.844178e+03 
2.277100e-01 3.819551e+03 
2.289900e-01 3.794391e+03 
2.301500e-01 3.771885e+03 
2.313600e-01 3.748705e+03 
2.325600e-01 3.726160e+03 
2.337700e-01 3.703715e+03 
2.350000e-01 3.681188e+03 
2.362000e-01 3.659763e+03 
2.374100e-01 3.638755e+03 
2.386500e-01 3.617498e+03 
2.399100e-01 3.596174e+03 
2.410400e-01 3.577355e+03 
2.422500e-01 3.557452e+03 
2.435000e-01 3.537146e+03 
2.447300e-01 3.517543e+03 
2.458700e-01 3.500107e+03 
2.470600e-01 3.482119e+03 
2.483300e-01 3.463156e+03 
2.495600e-01 3.444996e+03 
2.507600e-01 3.427460e+03 
2.519600e-01 3.410130e+03 
2.532200e-01 3.392152e+03 
2.543700e-01 3.375960e+03 
2.555500e-01 3.359549e+03 
2.568000e-01 3.342368e+03 
2.580100e-01 3.325934e+03 
2.592400e-01 3.309408e+03 
2.604100e-01 3.293861e+03 
2.616100e-01 3.278095e+03 
2.628400e-01 3.262119e+03 
2.640600e-01 3.246392e+03 
2.652200e-01 3.231580e+03 
2.664300e-01 3.216299e+03 
2.676500e-01 3.201065e+03 
2.688400e-01 3.186089e+03 
2.700700e-01 3.170605e+03 
2.712400e-01 3.156037e+03 
2.724800e-01 3.140766e+03 
2.736700e-01 3.126223e+03 
2.748800e-01 3.111546e+03 
2.761000e-01 3.096908e+03 
2.773200e-01 3.082430e+03 
2.785400e-01 3.067980e+03 
2.797000e-01 3.054118e+03 
2.808900e-01 3.040044e+03 
2.821400e-01 3.025417e+03 
2.833900e-01 3.010942e+03 
2.845500e-01 2.997476e+03 
2.857800e-01 2.983343e+03 
2.870300e-01 2.969134e+03 
2.882100e-01 2.955860e+03 
2.893900e-01 2.942514e+03 
2.906300e-01 2.928524e+03 
2.918900e-01 2.914458e+03 
2.930500e-01 2.901640e+03 
2.942500e-01 2.888511e+03 
2.954200e-01 2.875839e+03 
2.966500e-01 2.862649e+03 
2.978900e-01 2.849488e+03 
2.990400e-01 2.837402e+03 
3.002700e-01 2.824414e+03 
3.015100e-01 2.811361e+03 
3.026800e-01 2.799165e+03 
3.038500e-01 2.787085e+03 
3.050300e-01 2.775017e+03 
3.062600e-01 2.762612e+03 
3.075000e-01 2.750229e+03 
3.087000e-01 2.738362e+03 
3.099100e-01 2.726511e+03 
3.111200e-01 2.714735e+03 
3.123100e-01 2.703199e+03 
3.135300e-01 2.691484e+03 
3.147300e-01 2.680069e+03 
3.159900e-01 2.668199e+03 
3.171800e-01 2.657045e+03 
3.183700e-01 2.645962e+03 
3.196300e-01 2.634337e+03 
3.208400e-01 2.623280e+03 
3.220300e-01 2.612504e+03 
3.232000e-01 2.602045e+03 
3.244300e-01 2.591164e+03 
3.256700e-01 2.580298e+03 
3.269200e-01 2.569446e+03 
3.280800e-01 2.559467e+03 
3.292500e-01 2.549517e+03 
3.304800e-01 2.539158e+03 
3.317100e-01 2.528895e+03 
3.328900e-01 2.519136e+03 
3.340700e-01 2.509462e+03 
3.353600e-01 2.499015e+03 
3.365300e-01 2.489638e+03 
3.377100e-01 2.480262e+03 
3.389200e-01 2.470731e+03 
3.401600e-01 2.461051e+03 
3.413700e-01 2.451712e+03 
3.425300e-01 2.442852e+03 
3.437700e-01 2.433462e+03 
3.449800e-01 2.424381e+03 
3.461800e-01 2.415451e+03 
3.473600e-01 2.406757e+03 
3.485800e-01 2.397872e+03 
3.498100e-01 2.388992e+03 
3.510200e-01 2.380332e+03 
3.522000e-01 2.371957e+03 
3.533900e-01 2.363582e+03 
3.546400e-01 2.354975e+03 
3.558400e-01 2.346789e+03 
3.570600e-01 2.338537e+03 
3.582700e-01 2.330422e+03 
3.595000e-01 2.322242e+03 
3.607100e-01 2.314228e+03 
3.618900e-01 2.306451e+03 
3.631200e-01 2.298410e+03 
3.643200e-01 2.290631e+03 
3.655500e-01 2.282723e+03 
3.667300e-01 2.275199e+03 
3.679500e-01 2.267492e+03 
3.691900e-01 2.259724e+03 
3.703600e-01 2.252454e+03 
3.715700e-01 2.244995e+03 
3.727700e-01 2.237657e+03 
3.739900e-01 2.230273e+03 
3.752000e-01 2.223037e+03 
3.763900e-01 2.215977e+03 
3.775800e-01 2.208973e+03 
3.788200e-01 2.201733e+03 
3.800300e-01 2.194725e+03 
3.812100e-01 2.187940e+03 
3.824200e-01 2.181034e+03 
3.836100e-01 2.174294e+03 
3.848600e-01 2.167272e+03 
3.860400e-01 2.160694e+03 
3.872400e-01 2.154057e+03 
3.884600e-01 2.147382e+03 
3.896500e-01 2.140929e+03 
3.908700e-01 2.134364e+03 
3.920600e-01 2.128010e+03 
3.933100e-01 2.121388e+03 
3.945300e-01 2.114975e+03 
3.957200e-01 2.108711e+03 
3.969300e-01 2.102373e+03 
3.981700e-01 2.095929e+03 
3.993500e-01 2.089842e+03 
4.094840e-01 2.039435e+03 
4.272360e-01 1.957218e+03 
4.454600e-01 1.879485e+03 
4.630560e-01 1.810206e+03 
4.804610e-01 1.745884e+03 
4.980690e-01 1.685483e+03 
5.159230e-01 1.627747e+03 
5.317440e-01 1.579832e+03 
5.489640e-01 1.530372e+03 
5.671990e-01 1.480972e+03 
5.838690e-01 1.438429e+03 
6.018840e-01 1.394968e+03 
6.202330e-01 1.352704e+03 
6.379250e-01 1.314420e+03 
6.545410e-01 1.279954e+03 
6.714560e-01 1.246505e+03 
6.892080e-01 1.212862e+03 
7.066010e-01 1.181514e+03 
7.240540e-01 1.151314e+03 
7.420450e-01 1.121253e+03 
7.593780e-01 1.093676e+03 
7.764720e-01 1.067297e+03 
7.942840e-01 1.040840e+03 
8.116170e-01 1.016154e+03 
8.288310e-01 9.923806e+02 
8.462240e-01 9.692481e+02 
8.631980e-01 9.473267e+02 
8.810700e-01 9.250412e+02 
8.989410e-01 9.035171e+02 
9.166330e-01 8.829594e+02 
9.345640e-01 8.626694e+02 
9.515980e-01 8.440267e+02 
9.688720e-01 8.256769e+02 
9.865640e-01 8.074303e+02 
1.031870e+00 7.632572e+02 
1.063490e+00 7.344312e+02 
1.097920e+00 7.045307e+02 
1.134370e+00 6.747695e+02 
1.167730e+00 6.491388e+02 
1.203830e+00 6.227433e+02 
1.240470e+00 5.975524e+02 
1.275790e+00 5.745046e+02 
1.309140e+00 5.538546e+02 
1.342970e+00 5.339589e+02 
1.378420e+00 5.141536e+02 
1.413200e+00 4.957429e+02 
1.448110e+00 4.781619e+02 
1.484090e+00 4.609324e+02 
1.518820e+00 4.451059e+02 
1.552880e+00 4.303730e+02 
1.588630e+00 4.155936e+02 
1.623230e+00 4.019376e+02 
1.657720e+00 3.889721e+02 
1.692450e+00 3.765146e+02 
1.726400e+00 3.648633e+02 
1.762200e+00 3.531758e+02 
1.797880e+00 3.419857e+02 
1.833270e+00 3.314174e+02 
1.869070e+00 3.211790e+02 
1.903200e+00 3.118216e+02 
1.937740e+00 3.027255e+02 
1.973190e+00 2.937845e+02 
2.007440e+00 2.855302e+02 
2.042160e+00 2.774848e+02 
2.077900e+00 2.695225e+02 
2.112390e+00 2.621326e+02 
2.146220e+00 2.551993e+02 
2.181600e+00 2.481699e+02 
2.216930e+00 2.414413e+02 
2.250760e+00 2.352670e+02 
2.286500e+00 2.289807e+02 
2.321770e+00 2.229805e+02 
2.355950e+00 2.174002e+02 
2.391280e+00 2.118289e+02 
2.426240e+00 2.065077e+02 
2.460670e+00 2.014581e+02 
2.495640e+00 1.965191e+02 
2.531080e+00 1.916483e+02 
2.566220e+00 1.870033e+02 
2.600830e+00 1.825978e+02 
2.635080e+00 1.783945e+02 
2.670340e+00 1.741718e+02 
2.705970e+00 1.700610e+02 
2.740040e+00 1.662641e+02 
2.774520e+00 1.625352e+02 
2.809730e+00 1.588614e+02 
2.844390e+00 1.553629e+02 
2.879960e+00 1.518790e+02 
2.914860e+00 1.485634e+02 
2.949410e+00 1.453790e+02 
2.984440e+00 1.422415e+02 
3.019760e+00 1.391830e+02 
3.054730e+00 1.362509e+02 
3.089030e+00 1.334542e+02 
3.124060e+00 1.306866e+02 
3.159560e+00 1.279715e+02 
3.194710e+00 1.253564e+02 
3.229010e+00 1.228754e+02 
3.263320e+00 1.204579e+02 
3.297930e+00 1.180903e+02 
3.332830e+00 1.157755e+02 
3.368040e+00 1.135022e+02 
3.403300e+00 1.112868e+02 
3.438450e+00 1.091457e+02 
3.473060e+00 1.070957e+02 
3.508440e+00 1.050513e+02 
3.543110e+00 1.031005e+02 
3.577470e+00 1.012146e+02 
3.613040e+00 9.931485e+01 
3.648120e+00 9.749542e+01 
3.682910e+00 9.573588e+01 
3.718050e+00 9.400138e+01 
3.753320e+00 9.230729e+01 
3.787980e+00 9.068805e+01 
3.822290e+00 8.912317e+01 
3.857020e+00 8.757589e+01 
3.891920e+00 8.606080e+01 
3.926650e+00 8.459316e+01 
3.961970e+00 8.313554e+01 
3.997360e+00 8.170822e+01 
4.031670e+00 8.035803e+01 
4.066330e+00 7.903048e+01 
4.101420e+00 7.771760e+01 
4.136200e+00 7.645113e+01 
4.170810e+00 7.521925e+01 
4.206250e+00 7.398480e+01 
4.241580e+00 7.278177e+01 
4.276300e+00 7.162450e+01 
4.310970e+00 7.049347e+01 
4.346120e+00 6.937375e+01 
4.380600e+00 6.830225e+01 
4.414730e+00 6.726421e+01 
4.450350e+00 6.620882e+01 
4.485320e+00 6.519490e+01 
4.519810e+00 6.421488e+01 
4.555430e+00 6.322356e+01 
4.590870e+00 6.225938e+01 
4.625480e+00 6.133988e+01 
4.659910e+00 6.044366e+01 
4.695230e+00 5.954679e+01 
4.729960e+00 5.868332e+01 
4.764450e+00 5.784229e+01 
4.799530e+00 5.700292e+01 
4.834910e+00 5.617326e+01 
4.869700e+00 5.537680e+01 
4.904370e+00 5.459901e+01 
4.939450e+00 5.382691e+01 
4.973940e+00 5.308150e+01 
5.008430e+00 5.235019e+01 
5.043810e+00 5.161649e+01 
5.078840e+00 5.090514e+01 
5.113500e+00 5.021449e+01 
5.148890e+00 4.952551e+01 
5.184210e+00 4.885091e+01 
5.219060e+00 4.819734e+01 
5.253660e+00 4.755959e+01 
5.288570e+00 4.692777e+01 
5.323420e+00 4.630983e+01 
5.358440e+00 4.570161e+01 
5.393590e+00 4.510207e+01 
5.428310e+00 4.452219e+01 
5.462800e+00 4.395716e+01 
5.497640e+00 4.339631e+01 
5.532670e+00 4.284164e+01 
5.567280e+00 4.230289e+01 
5.602000e+00 4.177166e+01 
5.637270e+00 4.124332e+01 
5.672410e+00 4.072641e+01 
5.707020e+00 4.022590e+01 
5.742040e+00 3.973000e+01 
5.777430e+00 3.923771e+01 
5.812210e+00 3.876197e+01 
5.846820e+00 3.829581e+01 
5.881610e+00 3.783475e+01 
5.916510e+00 3.737978e+01 
5.951600e+00 3.692952e+01 
5.986560e+00 3.648809e+01 
6.021830e+00 3.604996e+01 
6.056490e+00 3.562741e+01 
6.091160e+00 3.521233e+01 
6.125830e+00 3.480379e+01 
6.161090e+00 3.439545e+01 
6.195760e+00 3.400154e+01 
6.230420e+00 3.361383e+01 
6.265690e+00 3.322541e+01 
6.300950e+00 3.284295e+01 
6.335620e+00 3.247268e+01 
6.370880e+00 3.210186e+01 
6.405550e+00 3.174400e+01 
6.440220e+00 3.139199e+01 
6.475480e+00 3.103938e+01 
6.510150e+00 3.069777e+01 
6.544810e+00 3.036113e+01 
6.580080e+00 3.002365e+01 
6.614750e+00 2.969681e+01 
6.649410e+00 2.937626e+01 
6.684080e+00 2.906055e+01 
6.719340e+00 2.874414e+01 
6.754010e+00 2.843744e+01 
6.788680e+00 2.813496e+01 
6.823940e+00 2.783174e+01 
6.859800e+00 2.752785e+01 
6.894470e+00 2.723814e+01 
6.929140e+00 2.695246e+01 
6.963800e+00 2.667086e+01 
6.999070e+00 2.638842e+01 
7.033730e+00 2.611609e+01 
7.068400e+00 2.584743e+01 
7.103660e+00 2.557799e+01 
7.138330e+00 2.531667e+01 
7.173600e+00 2.505441e+01 
7.208260e+00 2.480021e+01 
7.243530e+00 2.454506e+01 
7.277600e+00 2.430259e+01 
7.312860e+00 2.405565e+01 
7.348120e+00 2.381204e+01 
7.382790e+00 2.357571e+01 
7.417460e+00 2.334243e+01 
7.452720e+00 2.310829e+01 
7.487390e+00 2.288110e+01 
7.522650e+00 2.265308e+01 
7.557320e+00 2.243182e+01 
7.591990e+00 2.221341e+01 
7.627250e+00 2.199418e+01 
7.662510e+00 2.177780e+01 
7.697180e+00 2.156777e+01 
7.731850e+00 2.136040e+01 
7.766510e+00 2.115573e+01 
7.801180e+00 2.095358e+01 
7.836440e+00 2.075133e+01 
7.871110e+00 2.055542e+01 
7.906380e+00 2.035863e+01 
7.941040e+00 2.016766e+01 
7.976310e+00 1.997526e+01 
8.011570e+00 1.978475e+01 
8.046240e+00 1.959974e+01 
8.080900e+00 1.941706e+01 
8.115570e+00 1.923678e+01 
8.150830e+00 1.905652e+01 
8.185500e+00 1.888144e+01 
8.220770e+00 1.870550e+01 
8.255430e+00 1.853470e+01 
8.290100e+00 1.836681e+01 
8.324770e+00 1.820103e+01 
8.359430e+00 1.803726e+01 
8.394700e+00 1.787260e+01 
8.429960e+00 1.770953e+01 
8.464630e+00 1.755068e+01 
8.499890e+00 1.739103e+01 
8.534560e+00 1.723590e+01 
8.569200e+00 1.708270e+01 
