# Parameters:
# omega_b = 0.022270, omega_m = 0.141300, n_s = 0.990000, h = 67.900000, w = -1.000000, sigma_8 = 0.815400
# z = 0.000000
#
# k[1/Mpc] # P(k):
8.694000e-04 1.391750e+04 
2.077466e-03 3.040852e+04 
3.285532e-03 4.357111e+04 
4.493598e-03 5.385948e+04 
5.701664e-03 6.162933e+04 
6.909730e-03 6.725158e+04 
8.117797e-03 7.117169e+04 
9.325863e-03 7.361737e+04 
1.053393e-02 7.482322e+04 
1.174199e-02 7.501030e+04 
1.295006e-02 7.431953e+04 
1.415813e-02 7.294819e+04 
1.536619e-02 7.106305e+04 
1.657426e-02 6.878619e+04 
1.778233e-02 6.624045e+04 
1.899039e-02 6.356634e+04 
2.019846e-02 6.081135e+04 
2.140652e-02 5.805581e+04 
2.261459e-02 5.536093e+04 
2.382266e-02 5.278551e+04 
2.503072e-02 5.036568e+04 
2.623879e-02 4.811816e+04 
2.744685e-02 4.604865e+04 
2.865492e-02 4.416300e+04 
2.986299e-02 4.245478e+04 
3.100100e-02 4.100569e+04 
3.220400e-02 3.962813e+04 
3.288100e-02 3.891958e+04 
3.424300e-02 3.762354e+04 
3.555100e-02 3.652758e+04 
3.686000e-02 3.554473e+04 
3.795000e-02 3.480248e+04 
3.929100e-02 3.397011e+04 
4.039800e-02 3.332993e+04 
4.164000e-02 3.264117e+04 
4.294400e-02 3.193424e+04 
4.415000e-02 3.129736e+04 
4.542900e-02 3.060507e+04 
4.660900e-02 2.995844e+04 
4.782300e-02 2.926240e+04 
4.892900e-02 2.861196e+04 
5.031200e-02 2.777069e+04 
5.155900e-02 2.698593e+04 
5.238100e-02 2.645916e+04 
5.378200e-02 2.555142e+04 
5.513400e-02 2.466176e+04 
5.627600e-02 2.391348e+04 
5.735300e-02 2.321796e+04 
5.870100e-02 2.236205e+04 
5.988700e-02 2.163451e+04 
6.113500e-02 2.089983e+04 
6.225900e-02 2.026830e+04 
6.340100e-02 1.965824e+04 
6.480200e-02 1.895929e+04 
6.601100e-02 1.840242e+04 
6.725500e-02 1.787376e+04 
6.829100e-02 1.747222e+04 
6.958600e-02 1.700876e+04 
7.071100e-02 1.664242e+04 
7.192300e-02 1.628180e+04 
7.307400e-02 1.597005e+04 
7.412300e-02 1.570945e+04 
7.550400e-02 1.539870e+04 
7.663100e-02 1.516510e+04 
7.791200e-02 1.491985e+04 
7.912700e-02 1.470339e+04 
8.027600e-02 1.450639e+04 
8.138400e-02 1.432185e+04 
8.272200e-02 1.410366e+04 
8.406100e-02 1.388660e+04 
8.534100e-02 1.367574e+04 
8.653800e-02 1.347207e+04 
8.759800e-02 1.328916e+04 
8.900300e-02 1.304113e+04 
9.009000e-02 1.284190e+04 
9.113300e-02 1.264617e+04 
9.239600e-02 1.240690e+04 
9.358000e-02 1.217726e+04 
9.496100e-02 1.190764e+04 
9.608400e-02 1.168913e+04 
9.727500e-02 1.145920e+04 
9.852600e-02 1.121846e+04 
9.973800e-02 1.099165e+04 
1.009000e-01 1.078003e+04 
1.020900e-01 1.056948e+04 
1.034000e-01 1.034750e+04 
1.046000e-01 1.015349e+04 
1.057200e-01 9.982616e+03 
1.069100e-01 9.808604e+03 
1.082500e-01 9.627244e+03 
1.093900e-01 9.481263e+03 
1.105400e-01 9.340076e+03 
1.116900e-01 9.210691e+03 
1.129600e-01 9.074154e+03 
1.142000e-01 8.950524e+03 
1.153300e-01 8.843045e+03 
1.166400e-01 8.725279e+03 
1.177800e-01 8.626484e+03 
1.190000e-01 8.523829e+03 
1.201200e-01 8.433177e+03 
1.213400e-01 8.337006e+03 
1.227100e-01 8.229661e+03 
1.238900e-01 8.138934e+03 
1.250700e-01 8.048305e+03 
1.263200e-01 7.953229e+03 
1.275500e-01 7.858939e+03 
1.287500e-01 7.767882e+03 
1.299900e-01 7.674065e+03 
1.311300e-01 7.587885e+03 
1.323500e-01 7.494894e+03 
1.335900e-01 7.401638e+03 
1.347100e-01 7.318062e+03 
1.359800e-01 7.224617e+03 
1.372100e-01 7.134694e+03 
1.384300e-01 7.047033e+03 
1.395700e-01 6.965838e+03 
1.407700e-01 6.882050e+03 
1.420300e-01 6.795180e+03 
1.432800e-01 6.710866e+03 
1.444500e-01 6.634697e+03 
1.456300e-01 6.559407e+03 
1.468900e-01 6.480857e+03 
1.480500e-01 6.410056e+03 
1.491700e-01 6.343601e+03 
1.503800e-01 6.273962e+03 
1.516400e-01 6.203243e+03 
1.528200e-01 6.139826e+03 
1.540200e-01 6.076556e+03 
1.551900e-01 6.017442e+03 
1.564300e-01 5.956319e+03 
1.576600e-01 5.897149e+03 
1.588700e-01 5.840394e+03 
1.600900e-01 5.784296e+03 
1.612700e-01 5.732205e+03 
1.625400e-01 5.677174e+03 
1.637600e-01 5.625112e+03 
1.649500e-01 5.575131e+03 
1.662200e-01 5.522752e+03 
1.674000e-01 5.474938e+03 
1.685000e-01 5.431103e+03 
1.697500e-01 5.381873e+03 
1.710300e-01 5.332113e+03 
1.722200e-01 5.286662e+03 
1.734400e-01 5.240095e+03 
1.746400e-01 5.195035e+03 
1.758700e-01 5.149363e+03 
1.770900e-01 5.104287e+03 
1.782700e-01 5.061407e+03 
1.794600e-01 5.018421e+03 
1.807000e-01 4.974069e+03 
1.819100e-01 4.931503e+03 
1.830100e-01 4.893411e+03 
1.842200e-01 4.852153e+03 
1.855000e-01 4.809240e+03 
1.867000e-01 4.769986e+03 
1.879200e-01 4.730708e+03 
1.890900e-01 4.693602e+03 
1.902800e-01 4.656335e+03 
1.915200e-01 4.618104e+03 
1.926900e-01 4.582710e+03 
1.939000e-01 4.547064e+03 
1.951700e-01 4.510232e+03 
1.963100e-01 4.477795e+03 
1.975100e-01 4.444492e+03 
1.987800e-01 4.409782e+03 
2.000100e-01 4.376721e+03 
2.012500e-01 4.343991e+03 
2.023400e-01 4.315626e+03 
2.036100e-01 4.283074e+03 
2.048900e-01 4.250874e+03 
2.060400e-01 4.222363e+03 
2.072200e-01 4.193521e+03 
2.084200e-01 4.164740e+03 
2.096900e-01 4.134720e+03 
2.109200e-01 4.106067e+03 
2.121100e-01 4.078606e+03 
2.132700e-01 4.052192e+03 
2.145200e-01 4.024121e+03 
2.157200e-01 3.997510e+03 
2.168800e-01 3.972113e+03 
2.180700e-01 3.946403e+03 
2.193400e-01 3.919318e+03 
2.206000e-01 3.892783e+03 
2.217500e-01 3.868887e+03 
2.229500e-01 3.844273e+03 
2.241400e-01 3.820215e+03 
2.253500e-01 3.796073e+03 
2.264900e-01 3.773617e+03 
2.277100e-01 3.750137e+03 
2.289900e-01 3.726107e+03 
2.301500e-01 3.704613e+03 
2.313600e-01 3.682475e+03 
2.325600e-01 3.660859e+03 
2.337700e-01 3.639339e+03 
2.350000e-01 3.617741e+03 
2.362000e-01 3.597167e+03 
2.374100e-01 3.576952e+03 
2.386500e-01 3.556498e+03 
2.399100e-01 3.535980e+03 
2.410400e-01 3.517802e+03 
2.422500e-01 3.498569e+03 
2.435000e-01 3.478947e+03 
2.447300e-01 3.459995e+03 
2.458700e-01 3.443101e+03 
2.470600e-01 3.425672e+03 
2.483300e-01 3.407300e+03 
2.495600e-01 3.389685e+03 
2.507600e-01 3.372649e+03 
2.519600e-01 3.355814e+03 
2.532200e-01 3.338349e+03 
2.543700e-01 3.322610e+03 
2.555500e-01 3.306653e+03 
2.568000e-01 3.289947e+03 
2.580100e-01 3.273967e+03 
2.592400e-01 3.257902e+03 
2.604100e-01 3.242791e+03 
2.616100e-01 3.227466e+03 
2.628400e-01 3.211939e+03 
2.640600e-01 3.196675e+03 
2.652200e-01 3.182307e+03 
2.664300e-01 3.167485e+03 
2.676500e-01 3.152710e+03 
2.688400e-01 3.138205e+03 
2.700700e-01 3.123221e+03 
2.712400e-01 3.109125e+03 
2.724800e-01 3.094348e+03 
2.736700e-01 3.080302e+03 
2.748800e-01 3.066152e+03 
2.761000e-01 3.052040e+03 
2.773200e-01 3.038082e+03 
2.785400e-01 3.024167e+03 
2.797000e-01 3.010849e+03 
2.808900e-01 2.997329e+03 
2.821400e-01 2.983278e+03 
2.833900e-01 2.969375e+03 
2.845500e-01 2.956481e+03 
2.857800e-01 2.942950e+03 
2.870300e-01 2.929347e+03 
2.882100e-01 2.916639e+03 
2.893900e-01 2.903890e+03 
2.906300e-01 2.890541e+03 
2.918900e-01 2.877119e+03 
2.930500e-01 2.864889e+03 
2.942500e-01 2.852370e+03 
2.954200e-01 2.840311e+03 
2.966500e-01 2.827759e+03 
2.978900e-01 2.815235e+03 
2.990400e-01 2.803735e+03 
3.002700e-01 2.791386e+03 
3.015100e-01 2.778982e+03 
3.026800e-01 2.767392e+03 
3.038500e-01 2.755913e+03 
3.050300e-01 2.744446e+03 
3.062600e-01 2.732678e+03 
3.075000e-01 2.720932e+03 
3.087000e-01 2.709675e+03 
3.099100e-01 2.698434e+03 
3.111200e-01 2.687264e+03 
3.123100e-01 2.676319e+03 
3.135300e-01 2.665205e+03 
3.147300e-01 2.654376e+03 
3.159900e-01 2.643116e+03 
3.171800e-01 2.632534e+03 
3.183700e-01 2.622018e+03 
3.196300e-01 2.610988e+03 
3.208400e-01 2.600497e+03 
3.220300e-01 2.590275e+03 
3.232000e-01 2.580342e+03 
3.244300e-01 2.570006e+03 
3.256700e-01 2.559684e+03 
3.269200e-01 2.549376e+03 
3.280800e-01 2.539898e+03 
3.292500e-01 2.530435e+03 
3.304800e-01 2.520581e+03 
3.317100e-01 2.510818e+03 
3.328900e-01 2.501536e+03 
3.340700e-01 2.492334e+03 
3.353600e-01 2.482390e+03 
3.365300e-01 2.473461e+03 
3.377100e-01 2.464534e+03 
3.389200e-01 2.455459e+03 
3.401600e-01 2.446243e+03 
3.413700e-01 2.437338e+03 
3.425300e-01 2.428879e+03 
3.437700e-01 2.419915e+03 
3.449800e-01 2.411246e+03 
3.461800e-01 2.402722e+03 
3.473600e-01 2.394418e+03 
3.485800e-01 2.385922e+03 
3.498100e-01 2.377430e+03 
3.510200e-01 2.369149e+03 
3.522000e-01 2.361141e+03 
3.533900e-01 2.353134e+03 
3.546400e-01 2.344887e+03 
3.558400e-01 2.337044e+03 
3.570600e-01 2.329138e+03 
3.582700e-01 2.321364e+03 
3.595000e-01 2.313528e+03 
3.607100e-01 2.305841e+03 
3.618900e-01 2.298373e+03 
3.631200e-01 2.290654e+03 
3.643200e-01 2.283185e+03 
3.655500e-01 2.275594e+03 
3.667300e-01 2.268370e+03 
3.679500e-01 2.260954e+03 
3.691900e-01 2.253480e+03 
3.703600e-01 2.246485e+03 
3.715700e-01 2.239308e+03 
3.727700e-01 2.232249e+03 
3.739900e-01 2.225140e+03 
3.752000e-01 2.218164e+03 
3.763900e-01 2.211359e+03 
3.775800e-01 2.204607e+03 
3.788200e-01 2.197629e+03 
3.800300e-01 2.190874e+03 
3.812100e-01 2.184330e+03 
3.824200e-01 2.177666e+03 
3.836100e-01 2.171163e+03 
3.848600e-01 2.164388e+03 
3.860400e-01 2.158042e+03 
3.872400e-01 2.151639e+03 
3.884600e-01 2.145192e+03 
3.896500e-01 2.138956e+03 
3.908700e-01 2.132614e+03 
3.920600e-01 2.126475e+03 
3.933100e-01 2.120077e+03 
3.945300e-01 2.113882e+03 
3.957200e-01 2.107824e+03 
3.969300e-01 2.101692e+03 
3.981700e-01 2.095458e+03 
3.993500e-01 2.089570e+03 
4.094840e-01 2.040793e+03 
4.272360e-01 1.961190e+03 
4.454600e-01 1.885936e+03 
4.630560e-01 1.818913e+03 
4.804610e-01 1.756744e+03 
4.980690e-01 1.698454e+03 
5.159230e-01 1.642772e+03 
5.317440e-01 1.596604e+03 
5.489640e-01 1.548962e+03 
5.671990e-01 1.501393e+03 
5.838690e-01 1.460416e+03 
6.018840e-01 1.418544e+03 
6.202330e-01 1.377782e+03 
6.379250e-01 1.340843e+03 
6.545410e-01 1.307537e+03 
6.714560e-01 1.275180e+03 
6.892080e-01 1.242584e+03 
7.066010e-01 1.212177e+03 
7.240540e-01 1.182836e+03 
7.420450e-01 1.153568e+03 
7.593780e-01 1.126686e+03 
7.764720e-01 1.100917e+03 
7.942840e-01 1.075027e+03 
8.116170e-01 1.050844e+03 
8.288310e-01 1.027500e+03 
8.462240e-01 1.004756e+03 
8.631980e-01 9.831633e+02 
8.810700e-01 9.611742e+02 
8.989410e-01 9.399030e+02 
9.166330e-01 9.195592e+02 
9.345640e-01 8.994379e+02 
9.515980e-01 8.809254e+02 
9.688720e-01 8.626810e+02 
9.865640e-01 8.445053e+02 
1.031870e+00 8.004026e+02 
1.063490e+00 7.715308e+02 
1.097920e+00 7.415045e+02 
1.134370e+00 7.115452e+02 
1.167730e+00 6.856880e+02 
1.203830e+00 6.589876e+02 
1.240470e+00 6.334550e+02 
1.275790e+00 6.100329e+02 
1.309140e+00 5.890083e+02 
1.342970e+00 5.687074e+02 
1.378420e+00 5.484618e+02 
1.413200e+00 5.296104e+02 
1.448110e+00 5.115712e+02 
1.484090e+00 4.938618e+02 
1.518820e+00 4.775668e+02 
1.552880e+00 4.623730e+02 
1.588630e+00 4.471042e+02 
1.623230e+00 4.329730e+02 
1.657720e+00 4.195382e+02 
1.692450e+00 4.066081e+02 
1.726400e+00 3.944991e+02 
1.762200e+00 3.823340e+02 
1.797880e+00 3.706675e+02 
1.833270e+00 3.596375e+02 
1.869070e+00 3.489357e+02 
1.903200e+00 3.391416e+02 
1.937740e+00 3.296085e+02 
1.973190e+00 3.202276e+02 
2.007440e+00 3.115566e+02 
2.042160e+00 3.030935e+02 
2.077900e+00 2.947085e+02 
2.112390e+00 2.869172e+02 
2.146220e+00 2.795991e+02 
2.181600e+00 2.721704e+02 
2.216930e+00 2.650522e+02 
2.250760e+00 2.585143e+02 
2.286500e+00 2.518505e+02 
2.321770e+00 2.454821e+02 
2.355950e+00 2.395550e+02 
2.391280e+00 2.336307e+02 
2.426240e+00 2.279657e+02 
2.460670e+00 2.225852e+02 
2.495640e+00 2.173191e+02 
2.531080e+00 2.121179e+02 
2.566220e+00 2.071537e+02 
2.600830e+00 2.024420e+02 
2.635080e+00 1.979434e+02 
2.670340e+00 1.934180e+02 
2.705970e+00 1.890093e+02 
2.740040e+00 1.849343e+02 
2.774520e+00 1.809281e+02 
2.809730e+00 1.769787e+02 
2.844390e+00 1.732152e+02 
2.879960e+00 1.694635e+02 
2.914860e+00 1.658893e+02 
2.949410e+00 1.624541e+02 
2.984440e+00 1.590668e+02 
3.019760e+00 1.557627e+02 
3.054730e+00 1.525933e+02 
3.089030e+00 1.495665e+02 
3.124060e+00 1.465697e+02 
3.159560e+00 1.436281e+02 
3.194710e+00 1.407921e+02 
3.229010e+00 1.380999e+02 
3.263320e+00 1.354740e+02 
3.297930e+00 1.329011e+02 
3.332830e+00 1.303842e+02 
3.368040e+00 1.279104e+02 
3.403300e+00 1.254978e+02 
3.438450e+00 1.231645e+02 
3.473060e+00 1.209296e+02 
3.508440e+00 1.186988e+02 
3.543110e+00 1.165691e+02 
3.577470e+00 1.145080e+02 
3.613040e+00 1.124309e+02 
3.648120e+00 1.104404e+02 
3.682910e+00 1.085144e+02 
3.718050e+00 1.066145e+02 
3.753320e+00 1.047578e+02 
3.787980e+00 1.029820e+02 
3.822290e+00 1.012648e+02 
3.857020e+00 9.956567e+01 
3.891920e+00 9.790110e+01 
3.926650e+00 9.628775e+01 
3.961970e+00 9.468457e+01 
3.997360e+00 9.311350e+01 
4.031670e+00 9.162668e+01 
4.066330e+00 9.016369e+01 
4.101420e+00 8.871637e+01 
4.136200e+00 8.731952e+01 
4.170810e+00 8.596037e+01 
4.206250e+00 8.459705e+01 
4.241580e+00 8.326784e+01 
4.276300e+00 8.198820e+01 
4.310970e+00 8.073685e+01 
4.346120e+00 7.949746e+01 
4.380600e+00 7.831082e+01 
4.414730e+00 7.716087e+01 
4.450350e+00 7.599092e+01 
4.485320e+00 7.486658e+01 
4.519810e+00 7.377885e+01 
4.555430e+00 7.267796e+01 
4.590870e+00 7.160677e+01 
4.625480e+00 7.058472e+01 
4.659910e+00 6.958826e+01 
4.695230e+00 6.859033e+01 
4.729960e+00 6.762920e+01 
4.764450e+00 6.669259e+01 
4.799530e+00 6.575725e+01 
4.834910e+00 6.483245e+01 
4.869700e+00 6.394383e+01 
4.904370e+00 6.307570e+01 
4.939450e+00 6.221355e+01 
4.973940e+00 6.138065e+01 
5.008430e+00 6.056326e+01 
5.043810e+00 5.974267e+01 
5.078840e+00 5.894668e+01 
5.113500e+00 5.817362e+01 
5.148890e+00 5.740191e+01 
5.184210e+00 5.664607e+01 
5.219060e+00 5.591345e+01 
5.253660e+00 5.519793e+01 
5.288570e+00 5.448887e+01 
5.323420e+00 5.379502e+01 
5.358440e+00 5.311168e+01 
5.393590e+00 5.243792e+01 
5.428310e+00 5.178582e+01 
5.462800e+00 5.115013e+01 
5.497640e+00 5.051897e+01 
5.532670e+00 4.989417e+01 
5.567280e+00 4.928702e+01 
5.602000e+00 4.868820e+01 
5.637270e+00 4.809219e+01 
5.672410e+00 4.750887e+01 
5.707020e+00 4.694391e+01 
5.742040e+00 4.638374e+01 
5.777430e+00 4.582746e+01 
5.812210e+00 4.528975e+01 
5.846820e+00 4.476230e+01 
5.881610e+00 4.424038e+01 
5.916510e+00 4.372524e+01 
5.951600e+00 4.321497e+01 
5.986560e+00 4.271444e+01 
6.021830e+00 4.221754e+01 
6.056490e+00 4.173801e+01 
6.091160e+00 4.126670e+01 
6.125830e+00 4.080270e+01 
6.161090e+00 4.033873e+01 
6.195760e+00 3.989083e+01 
6.230420e+00 3.944989e+01 
6.265690e+00 3.900802e+01 
6.300950e+00 3.857237e+01 
6.335620e+00 3.815051e+01 
6.370880e+00 3.772794e+01 
6.405550e+00 3.731976e+01 
6.440220e+00 3.691806e+01 
6.475480e+00 3.651558e+01 
6.510150e+00 3.612548e+01 
6.544810e+00 3.574072e+01 
6.580080e+00 3.535491e+01 
6.614750e+00 3.498120e+01 
6.649410e+00 3.461429e+01 
6.684080e+00 3.425278e+01 
6.719340e+00 3.389040e+01 
6.754010e+00 3.353895e+01 
6.788680e+00 3.319197e+01 
6.823940e+00 3.284409e+01 
6.859800e+00 3.249536e+01 
6.894470e+00 3.216255e+01 
6.929140e+00 3.183420e+01 
6.963800e+00 3.151048e+01 
6.999070e+00 3.118571e+01 
7.033730e+00 3.087222e+01 
7.068400e+00 3.056290e+01 
7.103660e+00 3.025261e+01 
7.138330e+00 2.995152e+01 
7.173600e+00 2.964904e+01 
7.208260e+00 2.935580e+01 
7.243530e+00 2.906142e+01 
7.277600e+00 2.878145e+01 
7.312860e+00 2.849610e+01 
7.348120e+00 2.821456e+01 
7.382790e+00 2.794139e+01 
7.417460e+00 2.767149e+01 
7.452720e+00 2.740044e+01 
7.487390e+00 2.713740e+01 
7.522650e+00 2.687336e+01 
7.557320e+00 2.661682e+01 
7.591990e+00 2.636346e+01 
7.627250e+00 2.610909e+01 
7.662510e+00 2.585801e+01 
7.697180e+00 2.561402e+01 
7.731850e+00 2.537300e+01 
7.766510e+00 2.513508e+01 
7.801180e+00 2.490007e+01 
7.836440e+00 2.466473e+01 
7.871110e+00 2.443663e+01 
7.906380e+00 2.420748e+01 
7.941040e+00 2.398508e+01 
7.976310e+00 2.376081e+01 
8.011570e+00 2.353849e+01 
8.046240e+00 2.332258e+01 
8.080900e+00 2.310936e+01 
8.115570e+00 2.289887e+01 
8.150830e+00 2.268820e+01 
8.185500e+00 2.248355e+01 
8.220770e+00 2.227788e+01 
8.255430e+00 2.207819e+01 
8.290100e+00 2.188163e+01 
8.324770e+00 2.168748e+01 
8.359430e+00 2.149567e+01 
8.394700e+00 2.130280e+01 
8.429960e+00 2.111163e+01 
8.464630e+00 2.092523e+01 
8.499890e+00 2.073787e+01 
8.534560e+00 2.055581e+01 
8.569200e+00 2.037600e+01 
