# Parameters:
# omega_b = 0.022270, omega_m = 0.141300, n_s = 0.850000, h = 67.900000, w = -1.000000, sigma_8 = 0.815400
# z = 0.000000
#
# k[1/Mpc] # P(k):
8.694000e-04 2.722916e+04 
2.077466e-03 5.260243e+04 
3.285532e-03 7.069166e+04 
4.493598e-03 8.363282e+04 
5.701664e-03 9.256187e+04 
6.909730e-03 9.833586e+04 
8.117797e-03 1.017645e+05 
9.325863e-03 1.032609e+05 
1.053393e-02 1.032060e+05 
1.174199e-02 1.019340e+05 
1.295006e-02 9.965365e+04 
1.415813e-02 9.663631e+04 
1.536619e-02 9.310216e+04 
1.657426e-02 8.920778e+04 
1.778233e-02 8.510856e+04 
1.899039e-02 8.097040e+04 
2.019846e-02 7.683715e+04 
2.140652e-02 7.279871e+04 
2.261459e-02 6.892503e+04 
2.382266e-02 6.527778e+04 
2.503072e-02 6.188961e+04 
2.623879e-02 5.877138e+04 
2.744685e-02 5.592110e+04 
2.865492e-02 5.333645e+04 
2.986299e-02 5.100281e+04 
3.100100e-02 4.902557e+04 
3.220400e-02 4.714576e+04 
3.288100e-02 4.617778e+04 
3.424300e-02 4.440323e+04 
3.555100e-02 4.289629e+04 
3.686000e-02 4.154113e+04 
3.795000e-02 4.051431e+04 
3.929100e-02 3.935972e+04 
4.039800e-02 3.847217e+04 
4.164000e-02 3.752220e+04 
4.294400e-02 3.655673e+04 
4.415000e-02 3.569459e+04 
4.542900e-02 3.477375e+04 
4.660900e-02 3.392600e+04 
4.782300e-02 3.303131e+04 
4.892900e-02 3.220742e+04 
5.031200e-02 3.115919e+04 
5.155900e-02 3.019776e+04 
5.238100e-02 2.955976e+04 
5.378200e-02 2.847202e+04 
5.513400e-02 2.742000e+04 
5.627600e-02 2.654377e+04 
5.735300e-02 2.573514e+04 
5.870100e-02 2.474712e+04 
5.988700e-02 2.391187e+04 
6.113500e-02 2.307189e+04 
6.225900e-02 2.235199e+04 
6.340100e-02 2.165747e+04 
6.480200e-02 2.086180e+04 
6.601100e-02 2.022670e+04 
6.725500e-02 1.962165e+04 
6.829100e-02 1.915924e+04 
6.958600e-02 1.862270e+04 
7.071100e-02 1.819490e+04 
7.192300e-02 1.777012e+04 
7.307400e-02 1.739931e+04 
7.412300e-02 1.708641e+04 
7.550400e-02 1.670894e+04 
7.663100e-02 1.642280e+04 
7.791200e-02 1.611972e+04 
7.912700e-02 1.585096e+04 
8.027600e-02 1.560669e+04 
8.138400e-02 1.537870e+04 
8.272200e-02 1.511101e+04 
8.406100e-02 1.484764e+04 
8.534100e-02 1.459591e+04 
8.653800e-02 1.435687e+04 
8.759800e-02 1.414461e+04 
8.900300e-02 1.386049e+04 
9.009000e-02 1.363544e+04 
9.113300e-02 1.341672e+04 
9.239600e-02 1.315130e+04 
9.358000e-02 1.289880e+04 
9.496100e-02 1.260487e+04 
9.608400e-02 1.236786e+04 
9.727500e-02 1.211934e+04 
9.852600e-02 1.186062e+04 
9.973800e-02 1.161728e+04 
1.009000e-01 1.139060e+04 
1.020900e-01 1.116534e+04 
1.034000e-01 1.092777e+04 
1.046000e-01 1.072000e+04 
1.057200e-01 1.053646e+04 
1.069100e-01 1.034927e+04 
1.082500e-01 1.015312e+04 
1.093900e-01 9.994490e+03 
1.105400e-01 9.840638e+03 
1.116900e-01 9.698340e+03 
1.129600e-01 9.547714e+03 
1.142000e-01 9.410095e+03 
1.153300e-01 9.289996e+03 
1.166400e-01 9.157664e+03 
1.177800e-01 9.046225e+03 
1.190000e-01 8.930228e+03 
1.201200e-01 8.827693e+03 
1.213400e-01 8.718889e+03 
1.227100e-01 8.597939e+03 
1.238900e-01 8.495889e+03 
1.250700e-01 8.394555e+03 
1.263200e-01 8.288602e+03 
1.275500e-01 8.184307e+03 
1.287500e-01 8.083998e+03 
1.299900e-01 7.981291e+03 
1.311300e-01 7.887403e+03 
1.323500e-01 7.786771e+03 
1.335900e-01 7.686221e+03 
1.347100e-01 7.596585e+03 
1.359800e-01 7.496618e+03 
1.372100e-01 7.400915e+03 
1.384300e-01 7.307773e+03 
1.395700e-01 7.221857e+03 
1.407700e-01 7.133225e+03 
1.420300e-01 7.041591e+03 
1.432800e-01 6.952659e+03 
1.444500e-01 6.872354e+03 
1.456300e-01 6.792979e+03 
1.468900e-01 6.710061e+03 
1.480500e-01 6.635296e+03 
1.491700e-01 6.565002e+03 
1.503800e-01 6.491190e+03 
1.516400e-01 6.416157e+03 
1.528200e-01 6.348519e+03 
1.540200e-01 6.281042e+03 
1.551900e-01 6.217650e+03 
1.564300e-01 6.152018e+03 
1.576600e-01 6.088324e+03 
1.588700e-01 6.027035e+03 
1.600900e-01 5.966444e+03 
1.612700e-01 5.909912e+03 
1.625400e-01 5.850191e+03 
1.637600e-01 5.793682e+03 
1.649500e-01 5.739428e+03 
1.662200e-01 5.682587e+03 
1.674000e-01 5.630777e+03 
1.685000e-01 5.583280e+03 
1.697500e-01 5.530067e+03 
1.710300e-01 5.476409e+03 
1.722200e-01 5.427400e+03 
1.734400e-01 5.377536e+03 
1.746400e-01 5.329302e+03 
1.758700e-01 5.280534e+03 
1.770900e-01 5.232644e+03 
1.782700e-01 5.187089e+03 
1.794600e-01 5.141619e+03 
1.807000e-01 5.094838e+03 
1.819100e-01 5.049942e+03 
1.830100e-01 5.009949e+03 
1.842200e-01 4.966666e+03 
1.855000e-01 4.921654e+03 
1.867000e-01 4.880616e+03 
1.879200e-01 4.839552e+03 
1.890900e-01 4.800770e+03 
1.902800e-01 4.761866e+03 
1.915200e-01 4.721957e+03 
1.926900e-01 4.684998e+03 
1.939000e-01 4.647742e+03 
1.951700e-01 4.609246e+03 
1.963100e-01 4.575317e+03 
1.975100e-01 4.540407e+03 
1.987800e-01 4.504022e+03 
2.000100e-01 4.469337e+03 
2.012500e-01 4.434928e+03 
2.023400e-01 4.405108e+03 
2.036100e-01 4.370865e+03 
2.048900e-01 4.336911e+03 
2.060400e-01 4.306847e+03 
2.072200e-01 4.276426e+03 
2.084200e-01 4.245978e+03 
2.096900e-01 4.214219e+03 
2.109200e-01 4.183905e+03 
2.121100e-01 4.154840e+03 
2.132700e-01 4.126883e+03 
2.145200e-01 4.097170e+03 
2.157200e-01 4.069008e+03 
2.168800e-01 4.042131e+03 
2.180700e-01 4.014922e+03 
2.193400e-01 3.986286e+03 
2.206000e-01 3.958279e+03 
2.217500e-01 3.933056e+03 
2.229500e-01 3.907077e+03 
2.241400e-01 3.881773e+03 
2.253500e-01 3.856383e+03 
2.264900e-01 3.832766e+03 
2.277100e-01 3.808131e+03 
2.289900e-01 3.782987e+03 
2.301500e-01 3.760495e+03 
2.313600e-01 3.737330e+03 
2.325600e-01 3.714841e+03 
2.337700e-01 3.692451e+03 
2.350000e-01 3.669980e+03 
2.362000e-01 3.648626e+03 
2.374100e-01 3.627706e+03 
2.386500e-01 3.606538e+03 
2.399100e-01 3.585304e+03 
2.410400e-01 3.566587e+03 
2.422500e-01 3.546793e+03 
2.435000e-01 3.526600e+03 
2.447300e-01 3.507108e+03 
2.458700e-01 3.489782e+03 
2.470600e-01 3.471906e+03 
2.483300e-01 3.453063e+03 
2.495600e-01 3.435016e+03 
2.507600e-01 3.417590e+03 
2.519600e-01 3.400369e+03 
2.532200e-01 3.382505e+03 
2.543700e-01 3.366407e+03 
2.555500e-01 3.350087e+03 
2.568000e-01 3.333001e+03 
2.580100e-01 3.316658e+03 
2.592400e-01 3.300209e+03 
2.604100e-01 3.284729e+03 
2.616100e-01 3.269030e+03 
2.628400e-01 3.253124e+03 
2.640600e-01 3.237446e+03 
2.652200e-01 3.222672e+03 
2.664300e-01 3.207432e+03 
2.676500e-01 3.192239e+03 
2.688400e-01 3.177287e+03 
2.700700e-01 3.161819e+03 
2.712400e-01 3.147265e+03 
2.724800e-01 3.132010e+03 
2.736700e-01 3.117471e+03 
2.748800e-01 3.102786e+03 
2.761000e-01 3.088140e+03 
2.773200e-01 3.073654e+03 
2.785400e-01 3.059191e+03 
2.797000e-01 3.045303e+03 
2.808900e-01 3.031203e+03 
2.821400e-01 3.016550e+03 
2.833900e-01 3.002048e+03 
2.845500e-01 2.988543e+03 
2.857800e-01 2.974370e+03 
2.870300e-01 2.960120e+03 
2.882100e-01 2.946808e+03 
2.893900e-01 2.933418e+03 
2.906300e-01 2.919377e+03 
2.918900e-01 2.905259e+03 
2.930500e-01 2.892394e+03 
2.942500e-01 2.879216e+03 
2.954200e-01 2.866491e+03 
2.966500e-01 2.853246e+03 
2.978900e-01 2.840029e+03 
2.990400e-01 2.827892e+03 
3.002700e-01 2.814847e+03 
3.015100e-01 2.801737e+03 
3.026800e-01 2.789487e+03 
3.038500e-01 2.777353e+03 
3.050300e-01 2.765232e+03 
3.062600e-01 2.752768e+03 
3.075000e-01 2.740326e+03 
3.087000e-01 2.728403e+03 
3.099100e-01 2.716495e+03 
3.111200e-01 2.704664e+03 
3.123100e-01 2.693074e+03 
3.135300e-01 2.681304e+03 
3.147300e-01 2.669837e+03 
3.159900e-01 2.657911e+03 
3.171800e-01 2.646705e+03 
3.183700e-01 2.635571e+03 
3.196300e-01 2.623893e+03 
3.208400e-01 2.612784e+03 
3.220300e-01 2.601959e+03 
3.232000e-01 2.591452e+03 
3.244300e-01 2.580524e+03 
3.256700e-01 2.569610e+03 
3.269200e-01 2.558711e+03 
3.280800e-01 2.548687e+03 
3.292500e-01 2.538696e+03 
3.304800e-01 2.528295e+03 
3.317100e-01 2.517989e+03 
3.328900e-01 2.508190e+03 
3.340700e-01 2.498476e+03 
3.353600e-01 2.487988e+03 
3.365300e-01 2.478573e+03 
3.377100e-01 2.469160e+03 
3.389200e-01 2.459592e+03 
3.401600e-01 2.449873e+03 
3.413700e-01 2.440500e+03 
3.425300e-01 2.431609e+03 
3.437700e-01 2.422187e+03 
3.449800e-01 2.413074e+03 
3.461800e-01 2.404113e+03 
3.473600e-01 2.395389e+03 
3.485800e-01 2.386476e+03 
3.498100e-01 2.377568e+03 
3.510200e-01 2.368880e+03 
3.522000e-01 2.360479e+03 
3.533900e-01 2.352076e+03 
3.546400e-01 2.343445e+03 
3.558400e-01 2.335236e+03 
3.570600e-01 2.326961e+03 
3.582700e-01 2.318823e+03 
3.595000e-01 2.310620e+03 
3.607100e-01 2.302585e+03 
3.618900e-01 2.294789e+03 
3.631200e-01 2.286729e+03 
3.643200e-01 2.278930e+03 
3.655500e-01 2.271003e+03 
3.667300e-01 2.263460e+03 
3.679500e-01 2.255738e+03 
3.691900e-01 2.247954e+03 
3.703600e-01 2.240669e+03 
3.715700e-01 2.233195e+03 
3.727700e-01 2.225842e+03 
3.739900e-01 2.218443e+03 
3.752000e-01 2.211195e+03 
3.763900e-01 2.204123e+03 
3.775800e-01 2.197107e+03 
3.788200e-01 2.189854e+03 
3.800300e-01 2.182833e+03 
3.812100e-01 2.176038e+03 
3.824200e-01 2.169121e+03 
3.836100e-01 2.162372e+03 
3.848600e-01 2.155339e+03 
3.860400e-01 2.148751e+03 
3.872400e-01 2.142104e+03 
3.884600e-01 2.135420e+03 
3.896500e-01 2.128959e+03 
3.908700e-01 2.122386e+03 
3.920600e-01 2.116024e+03 
3.933100e-01 2.109393e+03 
3.945300e-01 2.102972e+03 
3.957200e-01 2.096701e+03 
3.969300e-01 2.090357e+03 
3.981700e-01 2.083906e+03 
3.993500e-01 2.077814e+03 
4.094840e-01 2.027359e+03 
4.272360e-01 1.945082e+03 
4.454600e-01 1.867300e+03 
4.630560e-01 1.797976e+03 
4.804610e-01 1.733610e+03 
4.980690e-01 1.673158e+03 
5.159230e-01 1.615375e+03 
5.317440e-01 1.567419e+03 
5.489640e-01 1.517920e+03 
5.671990e-01 1.468485e+03 
5.838690e-01 1.425919e+03 
6.018840e-01 1.382441e+03 
6.202330e-01 1.340175e+03 
6.379250e-01 1.301894e+03 
6.545410e-01 1.267446e+03 
6.714560e-01 1.234023e+03 
6.892080e-01 1.200418e+03 
7.066010e-01 1.169115e+03 
7.240540e-01 1.138968e+03 
7.420450e-01 1.108974e+03 
7.593780e-01 1.081467e+03 
7.764720e-01 1.055165e+03 
7.942840e-01 1.028795e+03 
8.116170e-01 1.004195e+03 
8.288310e-01 9.805161e+02 
8.462240e-01 9.574810e+02 
8.631980e-01 9.356591e+02 
8.810700e-01 9.134816e+02 
8.989410e-01 8.920679e+02 
9.166330e-01 8.716210e+02 
9.345640e-01 8.514472e+02 
9.515980e-01 8.329156e+02 
9.688720e-01 8.146793e+02 
9.865640e-01 7.965509e+02 
1.031870e+00 7.526807e+02 
1.063490e+00 7.240670e+02 
1.097920e+00 6.943985e+02 
1.134370e+00 6.648795e+02 
1.167730e+00 6.394657e+02 
1.203830e+00 6.133038e+02 
1.240470e+00 5.883431e+02 
1.275790e+00 5.655149e+02 
1.309140e+00 5.450669e+02 
1.342970e+00 5.253721e+02 
1.378420e+00 5.057720e+02 
1.413200e+00 4.875562e+02 
1.448110e+00 4.701664e+02 
1.484090e+00 4.531285e+02 
1.518820e+00 4.374817e+02 
1.552880e+00 4.229193e+02 
1.588630e+00 4.083147e+02 
1.623230e+00 3.948232e+02 
1.657720e+00 3.820164e+02 
1.692450e+00 3.697143e+02 
1.726400e+00 3.582102e+02 
1.762200e+00 3.466729e+02 
1.797880e+00 3.356292e+02 
1.833270e+00 3.252007e+02 
1.869070e+00 3.150999e+02 
1.903200e+00 3.058700e+02 
1.937740e+00 2.968994e+02 
1.973190e+00 2.880832e+02 
2.007440e+00 2.799454e+02 
2.042160e+00 2.720152e+02 
2.077900e+00 2.641681e+02 
2.112390e+00 2.568864e+02 
2.146220e+00 2.500555e+02 
2.181600e+00 2.431312e+02 
2.216930e+00 2.365042e+02 
2.250760e+00 2.304239e+02 
2.286500e+00 2.242343e+02 
2.321770e+00 2.183276e+02 
2.355950e+00 2.128346e+02 
2.391280e+00 2.073514e+02 
2.426240e+00 2.021153e+02 
2.460670e+00 1.971471e+02 
2.495640e+00 1.922881e+02 
2.531080e+00 1.874972e+02 
2.566220e+00 1.829289e+02 
2.600830e+00 1.785967e+02 
2.635080e+00 1.744638e+02 
2.670340e+00 1.703125e+02 
2.705970e+00 1.662717e+02 
2.740040e+00 1.625398e+02 
2.774520e+00 1.588753e+02 
2.809730e+00 1.552652e+02 
2.844390e+00 1.518278e+02 
2.879960e+00 1.484052e+02 
2.914860e+00 1.451485e+02 
2.949410e+00 1.420210e+02 
2.984440e+00 1.389398e+02 
3.019760e+00 1.359365e+02 
3.054730e+00 1.330577e+02 
3.089030e+00 1.303122e+02 
3.124060e+00 1.275954e+02 
3.159560e+00 1.249305e+02 
3.194710e+00 1.223640e+02 
3.229010e+00 1.199295e+02 
3.263320e+00 1.175576e+02 
3.297930e+00 1.152347e+02 
3.332830e+00 1.129638e+02 
3.368040e+00 1.107340e+02 
3.403300e+00 1.085611e+02 
3.438450e+00 1.064614e+02 
3.473060e+00 1.044512e+02 
3.508440e+00 1.024467e+02 
3.543110e+00 1.005341e+02 
3.577470e+00 9.868533e+01 
3.613040e+00 9.682323e+01 
3.648120e+00 9.504000e+01 
3.682910e+00 9.331560e+01 
3.718050e+00 9.161591e+01 
3.753320e+00 8.995597e+01 
3.787980e+00 8.836952e+01 
3.822290e+00 8.683647e+01 
3.857020e+00 8.532083e+01 
3.891920e+00 8.383682e+01 
3.926650e+00 8.239943e+01 
3.961970e+00 8.097195e+01 
3.997360e+00 7.957431e+01 
4.031670e+00 7.825229e+01 
4.066330e+00 7.695259e+01 
4.101420e+00 7.566733e+01 
4.136200e+00 7.442758e+01 
4.170810e+00 7.322176e+01 
4.206250e+00 7.201359e+01 
4.241580e+00 7.083627e+01 
4.276300e+00 6.970387e+01 
4.310970e+00 6.859724e+01 
4.346120e+00 6.750175e+01 
4.380600e+00 6.645353e+01 
4.414730e+00 6.543809e+01 
4.450350e+00 6.440579e+01 
4.485320e+00 6.341409e+01 
4.519810e+00 6.245568e+01 
4.555430e+00 6.148633e+01 
4.590870e+00 6.054356e+01 
4.625480e+00 5.964455e+01 
4.659910e+00 5.876835e+01 
4.695230e+00 5.789161e+01 
4.729960e+00 5.704757e+01 
4.764450e+00 5.622553e+01 
4.799530e+00 5.540519e+01 
4.834910e+00 5.459438e+01 
4.869700e+00 5.381613e+01 
4.904370e+00 5.305618e+01 
4.939450e+00 5.230184e+01 
4.973940e+00 5.157365e+01 
5.008430e+00 5.085926e+01 
5.043810e+00 5.014261e+01 
5.078840e+00 4.944786e+01 
5.113500e+00 4.877335e+01 
5.148890e+00 4.810055e+01 
5.184210e+00 4.744181e+01 
5.219060e+00 4.680367e+01 
5.253660e+00 4.618106e+01 
5.288570e+00 4.556427e+01 
5.323420e+00 4.496108e+01 
5.358440e+00 4.436743e+01 
5.393590e+00 4.378228e+01 
5.428310e+00 4.321638e+01 
5.462800e+00 4.266501e+01 
5.497640e+00 4.211775e+01 
5.532670e+00 4.157659e+01 
5.567280e+00 4.105101e+01 
5.602000e+00 4.053279e+01 
5.637270e+00 4.001745e+01 
5.672410e+00 3.951329e+01 
5.707020e+00 3.902514e+01 
5.742040e+00 3.854154e+01 
5.777430e+00 3.806149e+01 
5.812210e+00 3.759761e+01 
5.846820e+00 3.714314e+01 
5.881610e+00 3.669368e+01 
5.916510e+00 3.625017e+01 
5.951600e+00 3.581131e+01 
5.986560e+00 3.538110e+01 
6.021830e+00 3.495413e+01 
6.056490e+00 3.454237e+01 
6.091160e+00 3.413794e+01 
6.125830e+00 3.373988e+01 
6.161090e+00 3.334206e+01 
6.195760e+00 3.295834e+01 
6.230420e+00 3.258067e+01 
6.265690e+00 3.220233e+01 
6.300950e+00 3.182987e+01 
6.335620e+00 3.146929e+01 
6.370880e+00 3.110820e+01 
6.405550e+00 3.075977e+01 
6.440220e+00 3.041706e+01 
6.475480e+00 3.007379e+01 
6.510150e+00 2.974126e+01 
6.544810e+00 2.941360e+01 
6.580080e+00 2.908514e+01 
6.614750e+00 2.876704e+01 
6.649410e+00 2.845513e+01 
6.684080e+00 2.814793e+01 
6.719340e+00 2.784007e+01 
6.754010e+00 2.754169e+01 
6.788680e+00 2.724745e+01 
6.823940e+00 2.695251e+01 
6.859800e+00 2.665692e+01 
6.894470e+00 2.637518e+01 
6.929140e+00 2.609738e+01 
6.963800e+00 2.582355e+01 
6.999070e+00 2.554892e+01 
7.033730e+00 2.528417e+01 
7.068400e+00 2.502300e+01 
7.103660e+00 2.476107e+01 
7.138330e+00 2.450707e+01 
7.173600e+00 2.425219e+01 
7.208260e+00 2.400515e+01 
7.243530e+00 2.375719e+01 
7.277600e+00 2.352159e+01 
7.312860e+00 2.328167e+01 
7.348120e+00 2.304499e+01 
7.382790e+00 2.281540e+01 
7.417460e+00 2.258879e+01 
7.452720e+00 2.236138e+01 
7.487390e+00 2.214072e+01 
7.522650e+00 2.191927e+01 
7.557320e+00 2.170441e+01 
7.591990e+00 2.149235e+01 
7.627250e+00 2.127950e+01 
7.662510e+00 2.106942e+01 
7.697180e+00 2.086554e+01 
7.731850e+00 2.066426e+01 
7.766510e+00 2.046560e+01 
7.801180e+00 2.026939e+01 
7.836440e+00 2.007312e+01 
7.871110e+00 1.988302e+01 
7.906380e+00 1.969206e+01 
7.941040e+00 1.950677e+01 
7.976310e+00 1.932011e+01 
8.011570e+00 1.913530e+01 
8.046240e+00 1.895585e+01 
8.080900e+00 1.877866e+01 
8.115570e+00 1.860380e+01 
8.150830e+00 1.842899e+01 
8.185500e+00 1.825921e+01 
8.220770e+00 1.808860e+01 
8.255430e+00 1.792297e+01 
8.290100e+00 1.776021e+01 
8.324770e+00 1.759950e+01 
8.359430e+00 1.744074e+01 
8.394700e+00 1.728111e+01 
8.429960e+00 1.712306e+01 
8.464630e+00 1.696911e+01 
8.499890e+00 1.681439e+01 
8.534560e+00 1.666405e+01 
8.569200e+00 1.651560e+01 
