# Parameters:
# omega_b = 0.021500, omega_m = 0.141300, n_s = 0.968100, h = 67.900000, w = -1.000000, sigma_8 = 0.815400
# z = 0.000000
#
# k[1/Mpc] # P(k):
8.694000e-04 1.517950e+04 
2.077466e-03 3.251012e+04 
3.285532e-03 4.610709e+04 
4.493598e-03 5.659302e+04 
5.701664e-03 6.442723e+04 
6.909730e-03 7.002598e+04 
8.117797e-03 7.386531e+04 
9.325863e-03 7.619176e+04 
1.053393e-02 7.725709e+04 
1.174199e-02 7.729709e+04 
1.295006e-02 7.645925e+04 
1.415813e-02 7.494629e+04 
1.536619e-02 7.292985e+04 
1.657426e-02 7.055103e+04 
1.778233e-02 6.799743e+04 
1.899039e-02 6.537917e+04 
2.019846e-02 6.260845e+04 
2.140652e-02 5.975900e+04 
2.261459e-02 5.695065e+04 
2.382266e-02 5.426661e+04 
2.503072e-02 5.174641e+04 
2.623879e-02 4.940659e+04 
2.744685e-02 4.725199e+04 
2.865492e-02 4.528816e+04 
2.986299e-02 4.350816e+04 
3.100100e-02 4.199679e+04 
3.220400e-02 4.055857e+04 
3.288100e-02 3.981808e+04 
3.424300e-02 3.846225e+04 
3.555100e-02 3.731422e+04 
3.686000e-02 3.628384e+04 
3.795000e-02 3.550522e+04 
3.929100e-02 3.463198e+04 
4.039800e-02 3.396088e+04 
4.164000e-02 3.323999e+04 
4.294400e-02 3.250224e+04 
4.415000e-02 3.183916e+04 
4.542900e-02 3.112121e+04 
4.660900e-02 3.045254e+04 
4.782300e-02 2.973544e+04 
4.892900e-02 2.906694e+04 
5.031200e-02 2.820447e+04 
5.155900e-02 2.740183e+04 
5.238100e-02 2.686382e+04 
5.378200e-02 2.593783e+04 
5.513400e-02 2.503148e+04 
5.627600e-02 2.426978e+04 
5.735300e-02 2.356212e+04 
5.870100e-02 2.269160e+04 
5.988700e-02 2.195171e+04 
6.113500e-02 2.120454e+04 
6.225900e-02 2.056209e+04 
6.340100e-02 1.994122e+04 
6.480200e-02 1.922946e+04 
6.601100e-02 1.866182e+04 
6.725500e-02 1.812232e+04 
6.829100e-02 1.771192e+04 
6.958600e-02 1.723766e+04 
7.071100e-02 1.686211e+04 
7.192300e-02 1.649179e+04 
7.307400e-02 1.617107e+04 
7.412300e-02 1.590252e+04 
7.550400e-02 1.558165e+04 
7.663100e-02 1.534012e+04 
7.791200e-02 1.508624e+04 
7.912700e-02 1.486209e+04 
8.027600e-02 1.465826e+04 
8.138400e-02 1.446755e+04 
8.272200e-02 1.424251e+04 
8.406100e-02 1.401926e+04 
8.534100e-02 1.380320e+04 
8.653800e-02 1.359528e+04 
8.759800e-02 1.340900e+04 
8.900300e-02 1.315708e+04 
9.009000e-02 1.295528e+04 
9.113300e-02 1.275743e+04 
9.239600e-02 1.251587e+04 
9.358000e-02 1.228435e+04 
9.496100e-02 1.201288e+04 
9.608400e-02 1.179298e+04 
9.727500e-02 1.156165e+04 
9.852600e-02 1.131948e+04 
9.973800e-02 1.109128e+04 
1.009000e-01 1.087832e+04 
1.020900e-01 1.066622e+04 
1.034000e-01 1.044248e+04 
1.046000e-01 1.024676e+04 
1.057200e-01 1.007410e+04 
1.069100e-01 9.898145e+03 
1.082500e-01 9.714394e+03 
1.093900e-01 9.566260e+03 
1.105400e-01 9.422857e+03 
1.116900e-01 9.291112e+03 
1.129600e-01 9.151977e+03 
1.142000e-01 9.025732e+03 
1.153300e-01 8.915902e+03 
1.166400e-01 8.795433e+03 
1.177800e-01 8.694341e+03 
1.190000e-01 8.589285e+03 
1.201200e-01 8.496586e+03 
1.213400e-01 8.398255e+03 
1.227100e-01 8.288751e+03 
1.238900e-01 8.196265e+03 
1.250700e-01 8.104095e+03 
1.263200e-01 8.007503e+03 
1.275500e-01 7.911930e+03 
1.287500e-01 7.819741e+03 
1.299900e-01 7.724923e+03 
1.311300e-01 7.637916e+03 
1.323500e-01 7.544165e+03 
1.335900e-01 7.450209e+03 
1.347100e-01 7.366084e+03 
1.359800e-01 7.272054e+03 
1.372100e-01 7.181623e+03 
1.384300e-01 7.093471e+03 
1.395700e-01 7.011833e+03 
1.407700e-01 6.927584e+03 
1.420300e-01 6.840199e+03 
1.432800e-01 6.755385e+03 
1.444500e-01 6.678689e+03 
1.456300e-01 6.602879e+03 
1.468900e-01 6.523704e+03 
1.480500e-01 6.452318e+03 
1.491700e-01 6.385265e+03 
1.503800e-01 6.314940e+03 
1.516400e-01 6.243503e+03 
1.528200e-01 6.179346e+03 
1.540200e-01 6.115338e+03 
1.551900e-01 6.055457e+03 
1.564300e-01 5.993520e+03 
1.576600e-01 5.933535e+03 
1.588700e-01 5.875964e+03 
1.600900e-01 5.819058e+03 
1.612700e-01 5.766188e+03 
1.625400e-01 5.710336e+03 
1.637600e-01 5.657515e+03 
1.649500e-01 5.606817e+03 
1.662200e-01 5.553696e+03 
1.674000e-01 5.505255e+03 
1.685000e-01 5.460847e+03 
1.697500e-01 5.411016e+03 
1.710300e-01 5.360692e+03 
1.722200e-01 5.314727e+03 
1.734400e-01 5.267727e+03 
1.746400e-01 5.222253e+03 
1.758700e-01 5.176188e+03 
1.770900e-01 5.130778e+03 
1.782700e-01 5.087580e+03 
1.794600e-01 5.044310e+03 
1.807000e-01 4.999687e+03 
1.819100e-01 4.956862e+03 
1.830100e-01 4.918558e+03 
1.842200e-01 4.877075e+03 
1.855000e-01 4.833927e+03 
1.867000e-01 4.794456e+03 
1.879200e-01 4.754960e+03 
1.890900e-01 4.717646e+03 
1.902800e-01 4.680148e+03 
1.915200e-01 4.641681e+03 
1.926900e-01 4.606059e+03 
1.939000e-01 4.570153e+03 
1.951700e-01 4.533052e+03 
1.963100e-01 4.500369e+03 
1.975100e-01 4.466782e+03 
1.987800e-01 4.431776e+03 
2.000100e-01 4.398424e+03 
2.012500e-01 4.365384e+03 
2.023400e-01 4.336749e+03 
2.036100e-01 4.303883e+03 
2.048900e-01 4.271358e+03 
2.060400e-01 4.242557e+03 
2.072200e-01 4.213423e+03 
2.084200e-01 4.184341e+03 
2.096900e-01 4.154006e+03 
2.109200e-01 4.125053e+03 
2.121100e-01 4.097312e+03 
2.132700e-01 4.070629e+03 
2.145200e-01 4.042271e+03 
2.157200e-01 4.015396e+03 
2.168800e-01 3.989749e+03 
2.180700e-01 3.963786e+03 
2.193400e-01 3.936441e+03 
2.206000e-01 3.909659e+03 
2.217500e-01 3.885541e+03 
2.229500e-01 3.860699e+03 
2.241400e-01 3.836424e+03 
2.253500e-01 3.812065e+03 
2.264900e-01 3.789406e+03 
2.277100e-01 3.765714e+03 
2.289900e-01 3.741466e+03 
2.301500e-01 3.719778e+03 
2.313600e-01 3.697438e+03 
2.325600e-01 3.675616e+03 
2.337700e-01 3.653890e+03 
2.350000e-01 3.632086e+03 
2.362000e-01 3.611306e+03 
2.374100e-01 3.590879e+03 
2.386500e-01 3.570209e+03 
2.399100e-01 3.549475e+03 
2.410400e-01 3.531092e+03 
2.422500e-01 3.511640e+03 
2.435000e-01 3.491794e+03 
2.447300e-01 3.472623e+03 
2.458700e-01 3.455519e+03 
2.470600e-01 3.437873e+03 
2.483300e-01 3.419272e+03 
2.495600e-01 3.401436e+03 
2.507600e-01 3.384186e+03 
2.519600e-01 3.367138e+03 
2.532200e-01 3.349453e+03 
2.543700e-01 3.333519e+03 
2.555500e-01 3.317365e+03 
2.568000e-01 3.300454e+03 
2.580100e-01 3.284277e+03 
2.592400e-01 3.268023e+03 
2.604100e-01 3.252739e+03 
2.616100e-01 3.237238e+03 
2.628400e-01 3.221532e+03 
2.640600e-01 3.206103e+03 
2.652200e-01 3.191585e+03 
2.664300e-01 3.176608e+03 
2.676500e-01 3.161677e+03 
2.688400e-01 3.147031e+03 
2.700700e-01 3.131908e+03 
2.712400e-01 3.117681e+03 
2.724800e-01 3.102767e+03 
2.736700e-01 3.088594e+03 
2.748800e-01 3.074322e+03 
2.761000e-01 3.060089e+03 
2.773200e-01 3.046011e+03 
2.785400e-01 3.031979e+03 
2.797000e-01 3.018553e+03 
2.808900e-01 3.004922e+03 
2.821400e-01 2.990757e+03 
2.833900e-01 2.976741e+03 
2.845500e-01 2.963745e+03 
2.857800e-01 2.950106e+03 
2.870300e-01 2.936394e+03 
2.882100e-01 2.923584e+03 
2.893900e-01 2.910733e+03 
2.906300e-01 2.897275e+03 
2.918900e-01 2.883745e+03 
2.930500e-01 2.871416e+03 
2.942500e-01 2.858794e+03 
2.954200e-01 2.846634e+03 
2.966500e-01 2.833978e+03 
2.978900e-01 2.821350e+03 
2.990400e-01 2.809754e+03 
3.002700e-01 2.797302e+03 
3.015100e-01 2.784792e+03 
3.026800e-01 2.773105e+03 
3.038500e-01 2.761529e+03 
3.050300e-01 2.749965e+03 
3.062600e-01 2.738094e+03 
3.075000e-01 2.726246e+03 
3.087000e-01 2.714891e+03 
3.099100e-01 2.703552e+03 
3.111200e-01 2.692284e+03 
3.123100e-01 2.681244e+03 
3.135300e-01 2.670033e+03 
3.147300e-01 2.659111e+03 
3.159900e-01 2.647752e+03 
3.171800e-01 2.637078e+03 
3.183700e-01 2.626471e+03 
3.196300e-01 2.615345e+03 
3.208400e-01 2.604763e+03 
3.220300e-01 2.594451e+03 
3.232000e-01 2.584434e+03 
3.244300e-01 2.574010e+03 
3.256700e-01 2.563600e+03 
3.269200e-01 2.553205e+03 
3.280800e-01 2.543645e+03 
3.292500e-01 2.534104e+03 
3.304800e-01 2.524169e+03 
3.317100e-01 2.514325e+03 
3.328900e-01 2.504966e+03 
3.340700e-01 2.495689e+03 
3.353600e-01 2.485663e+03 
3.365300e-01 2.476662e+03 
3.377100e-01 2.467662e+03 
3.389200e-01 2.458514e+03 
3.401600e-01 2.449223e+03 
3.413700e-01 2.440247e+03 
3.425300e-01 2.431724e+03 
3.437700e-01 2.422691e+03 
3.449800e-01 2.413955e+03 
3.461800e-01 2.405366e+03 
3.473600e-01 2.396999e+03 
3.485800e-01 2.388440e+03 
3.498100e-01 2.379886e+03 
3.510200e-01 2.371544e+03 
3.522000e-01 2.363477e+03 
3.533900e-01 2.355410e+03 
3.546400e-01 2.347106e+03 
3.558400e-01 2.339208e+03 
3.570600e-01 2.331247e+03 
3.582700e-01 2.323417e+03 
3.595000e-01 2.315526e+03 
3.607100e-01 2.307787e+03 
3.618900e-01 2.300270e+03 
3.631200e-01 2.292499e+03 
3.643200e-01 2.284981e+03 
3.655500e-01 2.277339e+03 
3.667300e-01 2.270067e+03 
3.679500e-01 2.262605e+03 
3.691900e-01 2.255083e+03 
3.703600e-01 2.248044e+03 
3.715700e-01 2.240823e+03 
3.727700e-01 2.233719e+03 
3.739900e-01 2.226567e+03 
3.752000e-01 2.219550e+03 
3.763900e-01 2.212704e+03 
3.775800e-01 2.205912e+03 
3.788200e-01 2.198892e+03 
3.800300e-01 2.192097e+03 
3.812100e-01 2.185515e+03 
3.824200e-01 2.178812e+03 
3.836100e-01 2.172273e+03 
3.848600e-01 2.165458e+03 
3.860400e-01 2.159076e+03 
3.872400e-01 2.152636e+03 
3.884600e-01 2.146153e+03 
3.896500e-01 2.139883e+03 
3.908700e-01 2.133505e+03 
3.920600e-01 2.127333e+03 
3.933100e-01 2.120899e+03 
3.945300e-01 2.114670e+03 
3.957200e-01 2.108579e+03 
3.969300e-01 2.102416e+03 
3.981700e-01 2.096148e+03 
3.993500e-01 2.090230e+03 
4.094840e-01 2.041197e+03 
4.272360e-01 1.961185e+03 
4.454600e-01 1.885542e+03 
4.630560e-01 1.818164e+03 
4.804610e-01 1.755653e+03 
4.980690e-01 1.697024e+03 
5.159230e-01 1.641010e+03 
5.317440e-01 1.594560e+03 
5.489640e-01 1.546621e+03 
5.671990e-01 1.498753e+03 
5.838690e-01 1.457518e+03 
6.018840e-01 1.415384e+03 
6.202330e-01 1.374373e+03 
6.379250e-01 1.337210e+03 
6.545410e-01 1.303709e+03 
6.714560e-01 1.271168e+03 
6.892080e-01 1.238394e+03 
7.066010e-01 1.207826e+03 
7.240540e-01 1.178336e+03 
7.420450e-01 1.148929e+03 
7.593780e-01 1.121924e+03 
7.764720e-01 1.096045e+03 
7.942840e-01 1.070052e+03 
8.116170e-01 1.045775e+03 
8.288310e-01 1.022350e+03 
8.462240e-01 9.995308e+02 
8.631980e-01 9.778721e+02 
8.810700e-01 9.558218e+02 
8.989410e-01 9.344964e+02 
9.166330e-01 9.141049e+02 
9.345640e-01 8.939427e+02 
9.515980e-01 8.753964e+02 
9.688720e-01 8.571222e+02 
9.865640e-01 8.389217e+02 
1.031870e+00 7.947748e+02 
1.063490e+00 7.658881e+02 
1.097920e+00 7.358584e+02 
1.134370e+00 7.059072e+02 
1.167730e+00 6.800657e+02 
1.203830e+00 6.533927e+02 
1.240470e+00 6.278944e+02 
1.275790e+00 6.045137e+02 
1.309140e+00 5.835325e+02 
1.342970e+00 5.632807e+02 
1.378420e+00 5.430900e+02 
1.413200e+00 5.242946e+02 
1.448110e+00 5.063152e+02 
1.484090e+00 4.886695e+02 
1.518820e+00 4.724377e+02 
1.552880e+00 4.573069e+02 
1.588630e+00 4.421057e+02 
1.623230e+00 4.280409e+02 
1.657720e+00 4.146722e+02 
1.692450e+00 4.018093e+02 
1.726400e+00 3.897658e+02 
1.762200e+00 3.776695e+02 
1.797880e+00 3.660722e+02 
1.833270e+00 3.551095e+02 
1.869070e+00 3.444758e+02 
1.903200e+00 3.347460e+02 
1.937740e+00 3.252777e+02 
1.973190e+00 3.159623e+02 
2.007440e+00 3.073534e+02 
2.042160e+00 2.989530e+02 
2.077900e+00 2.906316e+02 
2.112390e+00 2.829009e+02 
2.146220e+00 2.756411e+02 
2.181600e+00 2.682731e+02 
2.216930e+00 2.612142e+02 
2.250760e+00 2.547319e+02 
2.286500e+00 2.481259e+02 
2.321770e+00 2.418141e+02 
2.355950e+00 2.359403e+02 
2.391280e+00 2.300705e+02 
2.426240e+00 2.244586e+02 
2.460670e+00 2.191295e+02 
2.495640e+00 2.139141e+02 
2.531080e+00 2.087644e+02 
2.566220e+00 2.038499e+02 
2.600830e+00 1.991860e+02 
2.635080e+00 1.947336e+02 
2.670340e+00 1.902556e+02 
2.705970e+00 1.858937e+02 
2.740040e+00 1.818624e+02 
2.774520e+00 1.778998e+02 
2.809730e+00 1.739939e+02 
2.844390e+00 1.702721e+02 
2.879960e+00 1.665628e+02 
2.914860e+00 1.630295e+02 
2.949410e+00 1.596340e+02 
2.984440e+00 1.562864e+02 
3.019760e+00 1.530213e+02 
3.054730e+00 1.498896e+02 
3.089030e+00 1.468995e+02 
3.124060e+00 1.439392e+02 
3.159560e+00 1.410338e+02 
3.194710e+00 1.382330e+02 
3.229010e+00 1.355746e+02 
3.263320e+00 1.329821e+02 
3.297930e+00 1.304421e+02 
3.332830e+00 1.279576e+02 
3.368040e+00 1.255160e+02 
3.403300e+00 1.231350e+02 
3.438450e+00 1.208326e+02 
3.473060e+00 1.186274e+02 
3.508440e+00 1.164267e+02 
3.543110e+00 1.143258e+02 
3.577470e+00 1.122929e+02 
3.613040e+00 1.102445e+02 
3.648120e+00 1.082816e+02 
3.682910e+00 1.063825e+02 
3.718050e+00 1.045094e+02 
3.753320e+00 1.026790e+02 
3.787980e+00 1.009286e+02 
3.822290e+00 9.923606e+01 
3.857020e+00 9.756155e+01 
3.891920e+00 9.592124e+01 
3.926650e+00 9.433155e+01 
3.961970e+00 9.275202e+01 
3.997360e+00 9.120433e+01 
4.031670e+00 8.973975e+01 
4.066330e+00 8.829880e+01 
4.101420e+00 8.687338e+01 
4.136200e+00 8.549778e+01 
4.170810e+00 8.415938e+01 
4.206250e+00 8.281709e+01 
4.241580e+00 8.150847e+01 
4.276300e+00 8.024882e+01 
4.310970e+00 7.901714e+01 
4.346120e+00 7.779732e+01 
4.380600e+00 7.662951e+01 
4.414730e+00 7.549787e+01 
4.450350e+00 7.434668e+01 
4.485320e+00 7.324043e+01 
4.519810e+00 7.217035e+01 
4.555430e+00 7.108743e+01 
4.590870e+00 7.003379e+01 
4.625480e+00 6.902857e+01 
4.659910e+00 6.804856e+01 
4.695230e+00 6.706723e+01 
4.729960e+00 6.612215e+01 
4.764450e+00 6.520125e+01 
4.799530e+00 6.428169e+01 
4.834910e+00 6.337255e+01 
4.869700e+00 6.249909e+01 
4.904370e+00 6.164584e+01 
4.939450e+00 6.079852e+01 
4.973940e+00 5.998004e+01 
5.008430e+00 5.917684e+01 
5.043810e+00 5.837058e+01 
5.078840e+00 5.758855e+01 
5.113500e+00 5.682909e+01 
5.148890e+00 5.607104e+01 
5.184210e+00 5.532862e+01 
5.219060e+00 5.460906e+01 
5.253660e+00 5.390639e+01 
5.288570e+00 5.321010e+01 
5.323420e+00 5.252881e+01 
5.358440e+00 5.185790e+01 
5.393590e+00 5.119642e+01 
5.428310e+00 5.055628e+01 
5.462800e+00 4.993229e+01 
5.497640e+00 4.931278e+01 
5.532670e+00 4.869961e+01 
5.567280e+00 4.810380e+01 
5.602000e+00 4.751618e+01 
5.637270e+00 4.693140e+01 
5.672410e+00 4.635911e+01 
5.707020e+00 4.580485e+01 
5.742040e+00 4.525535e+01 
5.777430e+00 4.470970e+01 
5.812210e+00 4.418229e+01 
5.846820e+00 4.366503e+01 
5.881610e+00 4.315323e+01 
5.916510e+00 4.264809e+01 
5.951600e+00 4.214780e+01 
5.986560e+00 4.165712e+01 
6.021830e+00 4.117000e+01 
6.056490e+00 4.069996e+01 
6.091160e+00 4.023802e+01 
6.125830e+00 3.978327e+01 
6.161090e+00 3.932857e+01 
6.195760e+00 3.888967e+01 
6.230420e+00 3.845761e+01 
6.265690e+00 3.802465e+01 
6.300950e+00 3.759789e+01 
6.335620e+00 3.718464e+01 
6.370880e+00 3.677072e+01 
6.405550e+00 3.637094e+01 
6.440220e+00 3.597755e+01 
6.475480e+00 3.558340e+01 
6.510150e+00 3.520141e+01 
6.544810e+00 3.482470e+01 
6.580080e+00 3.444698e+01 
6.614750e+00 3.408112e+01 
6.649410e+00 3.372197e+01 
6.684080e+00 3.336813e+01 
6.719340e+00 3.301345e+01 
6.754010e+00 3.266950e+01 
6.788680e+00 3.232998e+01 
6.823940e+00 3.198958e+01 
6.859800e+00 3.164837e+01 
6.894470e+00 3.132280e+01 
6.929140e+00 3.100161e+01 
6.963800e+00 3.068496e+01 
6.999070e+00 3.036730e+01 
7.033730e+00 3.006072e+01 
7.068400e+00 2.975824e+01 
7.103660e+00 2.945482e+01 
7.138330e+00 2.916041e+01 
7.173600e+00 2.886469e+01 
7.208260e+00 2.857802e+01 
7.243530e+00 2.829024e+01 
7.277600e+00 2.801658e+01 
7.312860e+00 2.773770e+01 
7.348120e+00 2.746255e+01 
7.382790e+00 2.719558e+01 
7.417460e+00 2.693185e+01 
7.452720e+00 2.666702e+01 
7.487390e+00 2.641002e+01 
7.522650e+00 2.615206e+01 
7.557320e+00 2.590147e+01 
7.591990e+00 2.565401e+01 
7.627250e+00 2.540557e+01 
7.662510e+00 2.516035e+01 
7.697180e+00 2.492209e+01 
7.731850e+00 2.468676e+01 
7.766510e+00 2.445445e+01 
7.801180e+00 2.422499e+01 
7.836440e+00 2.399524e+01 
7.871110e+00 2.377259e+01 
7.906380e+00 2.354891e+01 
7.941040e+00 2.333183e+01 
7.976310e+00 2.311295e+01 
8.011570e+00 2.289602e+01 
8.046240e+00 2.268534e+01 
8.080900e+00 2.247729e+01 
8.115570e+00 2.227192e+01 
8.150830e+00 2.206640e+01 
8.185500e+00 2.186676e+01 
8.220770e+00 2.166613e+01 
8.255430e+00 2.147133e+01 
8.290100e+00 2.127964e+01 
8.324770e+00 2.109030e+01 
8.359430e+00 2.090325e+01 
8.394700e+00 2.071516e+01 
8.429960e+00 2.052876e+01 
8.464630e+00 2.034704e+01 
8.499890e+00 2.016439e+01 
8.534560e+00 1.998690e+01 
8.569200e+00 1.981161e+01 
