# Parameters:
# omega_b = 0.023000, omega_m = 0.141300, n_s = 0.968100, h = 67.900000, w = -1.000000, sigma_8 = 0.815400
# z = 0.000000
#
# k[1/Mpc] # P(k):
8.694000e-04 1.576123e+04 
2.077466e-03 3.376157e+04 
3.285532e-03 4.787081e+04 
4.493598e-03 5.877677e+04 
5.701664e-03 6.688975e+04 
6.909730e-03 7.266555e+04 
8.117797e-03 7.662154e+04 
9.325863e-03 7.901639e+04 
1.053393e-02 8.010250e+04 
1.174199e-02 8.011066e+04 
1.295006e-02 7.919304e+04 
1.415813e-02 7.756262e+04 
1.536619e-02 7.539542e+04 
1.657426e-02 7.280019e+04 
1.778233e-02 6.982182e+04 
1.899039e-02 6.664068e+04 
2.019846e-02 6.348791e+04 
2.140652e-02 6.046616e+04 
2.261459e-02 5.756302e+04 
2.382266e-02 5.480452e+04 
2.503072e-02 5.222110e+04 
2.623879e-02 4.982811e+04 
2.744685e-02 4.763015e+04 
2.865492e-02 4.563120e+04 
2.986299e-02 4.382315e+04 
3.100100e-02 4.229118e+04 
3.220400e-02 4.083596e+04 
3.288100e-02 4.008779e+04 
3.424300e-02 3.871927e+04 
3.555100e-02 3.756145e+04 
3.686000e-02 3.652255e+04 
3.795000e-02 3.573722e+04 
3.929100e-02 3.485541e+04 
4.039800e-02 3.417655e+04 
4.164000e-02 3.344615e+04 
4.294400e-02 3.269666e+04 
4.415000e-02 3.202188e+04 
4.542900e-02 3.128998e+04 
4.660900e-02 3.060783e+04 
4.782300e-02 2.987587e+04 
4.892900e-02 2.919371e+04 
5.031200e-02 2.831418e+04 
5.155900e-02 2.749655e+04 
5.238100e-02 2.694907e+04 
5.378200e-02 2.600790e+04 
5.513400e-02 2.508835e+04 
5.627600e-02 2.431680e+04 
5.735300e-02 2.360099e+04 
5.870100e-02 2.272184e+04 
5.988700e-02 2.197576e+04 
6.113500e-02 2.122340e+04 
6.225900e-02 2.057745e+04 
6.340100e-02 1.995400e+04 
6.480200e-02 1.924013e+04 
6.601100e-02 1.867162e+04 
6.725500e-02 1.813192e+04 
6.829100e-02 1.772184e+04 
6.958600e-02 1.724832e+04 
7.071100e-02 1.687367e+04 
7.192300e-02 1.650449e+04 
7.307400e-02 1.618491e+04 
7.412300e-02 1.591739e+04 
7.550400e-02 1.559778e+04 
7.663100e-02 1.535714e+04 
7.791200e-02 1.510397e+04 
7.912700e-02 1.488015e+04 
8.027600e-02 1.467629e+04 
8.138400e-02 1.448525e+04 
8.272200e-02 1.425935e+04 
8.406100e-02 1.403472e+04 
8.534100e-02 1.381675e+04 
8.653800e-02 1.360656e+04 
8.759800e-02 1.341803e+04 
8.900300e-02 1.316274e+04 
9.009000e-02 1.295808e+04 
9.113300e-02 1.275733e+04 
9.239600e-02 1.251224e+04 
9.358000e-02 1.227741e+04 
9.496100e-02 1.200224e+04 
9.608400e-02 1.177956e+04 
9.727500e-02 1.154548e+04 
9.852600e-02 1.130098e+04 
9.973800e-02 1.107086e+04 
1.009000e-01 1.085637e+04 
1.020900e-01 1.064338e+04 
1.034000e-01 1.041900e+04 
1.046000e-01 1.022304e+04 
1.057200e-01 1.005065e+04 
1.069100e-01 9.875147e+03 
1.082500e-01 9.692320e+03 
1.093900e-01 9.545162e+03 
1.105400e-01 9.402838e+03 
1.116900e-01 9.272321e+03 
1.129600e-01 9.134541e+03 
1.142000e-01 9.009618e+03 
1.153300e-01 8.900917e+03 
1.166400e-01 8.781655e+03 
1.177800e-01 8.681431e+03 
1.190000e-01 8.577206e+03 
1.201200e-01 8.484970e+03 
1.213400e-01 8.387080e+03 
1.227100e-01 8.277599e+03 
1.238900e-01 8.185038e+03 
1.250700e-01 8.092488e+03 
1.263200e-01 7.995398e+03 
1.275500e-01 7.899111e+03 
1.287500e-01 7.806152e+03 
1.299900e-01 7.710417e+03 
1.311300e-01 7.622553e+03 
1.323500e-01 7.527860e+03 
1.335900e-01 7.432990e+03 
1.347100e-01 7.348089e+03 
1.359800e-01 7.253253e+03 
1.372100e-01 7.162170e+03 
1.384300e-01 7.073453e+03 
1.395700e-01 6.991455e+03 
1.407700e-01 6.906859e+03 
1.420300e-01 6.819356e+03 
1.432800e-01 6.734429e+03 
1.444500e-01 6.657848e+03 
1.456300e-01 6.582151e+03 
1.468900e-01 6.503225e+03 
1.480500e-01 6.432101e+03 
1.491700e-01 6.365336e+03 
1.503800e-01 6.295367e+03 
1.516400e-01 6.224296e+03 
1.528200e-01 6.160489e+03 
1.540200e-01 6.096831e+03 
1.551900e-01 6.037255e+03 
1.564300e-01 5.975628e+03 
1.576600e-01 5.915911e+03 
1.588700e-01 5.858557e+03 
1.600900e-01 5.801863e+03 
1.612700e-01 5.749101e+03 
1.625400e-01 5.693363e+03 
1.637600e-01 5.640593e+03 
1.649500e-01 5.589911e+03 
1.662200e-01 5.536794e+03 
1.674000e-01 5.488288e+03 
1.685000e-01 5.443819e+03 
1.697500e-01 5.393894e+03 
1.710300e-01 5.343447e+03 
1.722200e-01 5.297370e+03 
1.734400e-01 5.250229e+03 
1.746400e-01 5.204618e+03 
1.758700e-01 5.158416e+03 
1.770900e-01 5.112873e+03 
1.782700e-01 5.069550e+03 
1.794600e-01 5.026171e+03 
1.807000e-01 4.981448e+03 
1.819100e-01 4.938527e+03 
1.830100e-01 4.900170e+03 
1.842200e-01 4.858635e+03 
1.855000e-01 4.815436e+03 
1.867000e-01 4.775967e+03 
1.879200e-01 4.736472e+03 
1.890900e-01 4.699167e+03 
1.902800e-01 4.661722e+03 
1.915200e-01 4.623309e+03 
1.926900e-01 4.587746e+03 
1.939000e-01 4.551932e+03 
1.951700e-01 4.514926e+03 
1.963100e-01 4.482334e+03 
1.975100e-01 4.448861e+03 
1.987800e-01 4.413973e+03 
2.000100e-01 4.380740e+03 
2.012500e-01 4.347826e+03 
2.023400e-01 4.319302e+03 
2.036100e-01 4.286564e+03 
2.048900e-01 4.254166e+03 
2.060400e-01 4.225479e+03 
2.072200e-01 4.196458e+03 
2.084200e-01 4.167485e+03 
2.096900e-01 4.137263e+03 
2.109200e-01 4.108418e+03 
2.121100e-01 4.080778e+03 
2.132700e-01 4.054193e+03 
2.145200e-01 4.025938e+03 
2.157200e-01 3.999168e+03 
2.168800e-01 3.973624e+03 
2.180700e-01 3.947765e+03 
2.193400e-01 3.920541e+03 
2.206000e-01 3.893899e+03 
2.217500e-01 3.869907e+03 
2.229500e-01 3.845195e+03 
2.241400e-01 3.821105e+03 
2.253500e-01 3.796932e+03 
2.264900e-01 3.774446e+03 
2.277100e-01 3.750980e+03 
2.289900e-01 3.727012e+03 
2.301500e-01 3.705575e+03 
2.313600e-01 3.683495e+03 
2.325600e-01 3.662033e+03 
2.337700e-01 3.640667e+03 
2.350000e-01 3.619224e+03 
2.362000e-01 3.598842e+03 
2.374100e-01 3.578872e+03 
2.386500e-01 3.558665e+03 
2.399100e-01 3.538395e+03 
2.410400e-01 3.520504e+03 
2.422500e-01 3.501583e+03 
2.435000e-01 3.482280e+03 
2.447300e-01 3.463648e+03 
2.458700e-01 3.447084e+03 
2.470600e-01 3.429997e+03 
2.483300e-01 3.411986e+03 
2.495600e-01 3.394722e+03 
2.507600e-01 3.378031e+03 
2.519600e-01 3.361538e+03 
2.532200e-01 3.344430e+03 
2.543700e-01 3.328997e+03 
2.555500e-01 3.313339e+03 
2.568000e-01 3.296949e+03 
2.580100e-01 3.281271e+03 
2.592400e-01 3.265471e+03 
2.604100e-01 3.250593e+03 
2.616100e-01 3.235506e+03 
2.628400e-01 3.220220e+03 
2.640600e-01 3.205139e+03 
2.652200e-01 3.190923e+03 
2.664300e-01 3.176259e+03 
2.676500e-01 3.161640e+03 
2.688400e-01 3.147241e+03 
2.700700e-01 3.132336e+03 
2.712400e-01 3.118313e+03 
2.724800e-01 3.103614e+03 
2.736700e-01 3.089609e+03 
2.748800e-01 3.075465e+03 
2.761000e-01 3.061359e+03 
2.773200e-01 3.047408e+03 
2.785400e-01 3.033482e+03 
2.797000e-01 3.020117e+03 
2.808900e-01 3.006548e+03 
2.821400e-01 2.992447e+03 
2.833900e-01 2.978493e+03 
2.845500e-01 2.965516e+03 
2.857800e-01 2.951898e+03 
2.870300e-01 2.938206e+03 
2.882100e-01 2.925416e+03 
2.893900e-01 2.912567e+03 
2.906300e-01 2.899104e+03 
2.918900e-01 2.885568e+03 
2.930500e-01 2.873233e+03 
2.942500e-01 2.860603e+03 
2.954200e-01 2.848425e+03 
2.966500e-01 2.835750e+03 
2.978900e-01 2.823102e+03 
2.990400e-01 2.811488e+03 
3.002700e-01 2.799012e+03 
3.015100e-01 2.786477e+03 
3.026800e-01 2.774765e+03 
3.038500e-01 2.763165e+03 
3.050300e-01 2.751577e+03 
3.062600e-01 2.739679e+03 
3.075000e-01 2.727803e+03 
3.087000e-01 2.716422e+03 
3.099100e-01 2.705056e+03 
3.111200e-01 2.693762e+03 
3.123100e-01 2.682695e+03 
3.135300e-01 2.671458e+03 
3.147300e-01 2.660509e+03 
3.159900e-01 2.649123e+03 
3.171800e-01 2.638423e+03 
3.183700e-01 2.627790e+03 
3.196300e-01 2.616638e+03 
3.208400e-01 2.606031e+03 
3.220300e-01 2.595695e+03 
3.232000e-01 2.585653e+03 
3.244300e-01 2.575205e+03 
3.256700e-01 2.564771e+03 
3.269200e-01 2.554351e+03 
3.280800e-01 2.544770e+03 
3.292500e-01 2.535207e+03 
3.304800e-01 2.525249e+03 
3.317100e-01 2.515382e+03 
3.328900e-01 2.506001e+03 
3.340700e-01 2.496702e+03 
3.353600e-01 2.486654e+03 
3.365300e-01 2.477632e+03 
3.377100e-01 2.468611e+03 
3.389200e-01 2.459443e+03 
3.401600e-01 2.450130e+03 
3.413700e-01 2.441135e+03 
3.425300e-01 2.432593e+03 
3.437700e-01 2.423540e+03 
3.449800e-01 2.414785e+03 
3.461800e-01 2.406177e+03 
3.473600e-01 2.397792e+03 
3.485800e-01 2.389214e+03 
3.498100e-01 2.380642e+03 
3.510200e-01 2.372281e+03 
3.522000e-01 2.364197e+03 
3.533900e-01 2.356113e+03 
3.546400e-01 2.347790e+03 
3.558400e-01 2.339875e+03 
3.570600e-01 2.331896e+03 
3.582700e-01 2.324050e+03 
3.595000e-01 2.316142e+03 
3.607100e-01 2.308386e+03 
3.618900e-01 2.300852e+03 
3.631200e-01 2.293065e+03 
3.643200e-01 2.285530e+03 
3.655500e-01 2.277872e+03 
3.667300e-01 2.270585e+03 
3.679500e-01 2.263107e+03 
3.691900e-01 2.255569e+03 
3.703600e-01 2.248515e+03 
3.715700e-01 2.241278e+03 
3.727700e-01 2.234159e+03 
3.739900e-01 2.226991e+03 
3.752000e-01 2.219960e+03 
3.763900e-01 2.213100e+03 
3.775800e-01 2.206294e+03 
3.788200e-01 2.199259e+03 
3.800300e-01 2.192450e+03 
3.812100e-01 2.185853e+03 
3.824200e-01 2.179137e+03 
3.836100e-01 2.172583e+03 
3.848600e-01 2.165753e+03 
3.860400e-01 2.159357e+03 
3.872400e-01 2.152903e+03 
3.884600e-01 2.146406e+03 
3.896500e-01 2.140123e+03 
3.908700e-01 2.133732e+03 
3.920600e-01 2.127546e+03 
3.933100e-01 2.121100e+03 
3.945300e-01 2.114857e+03 
3.957200e-01 2.108753e+03 
3.969300e-01 2.102577e+03 
3.981700e-01 2.096296e+03 
3.993500e-01 2.090365e+03 
4.094840e-01 2.041227e+03 
4.272360e-01 1.961043e+03 
4.454600e-01 1.885237e+03 
4.630560e-01 1.817715e+03 
4.804610e-01 1.755070e+03 
4.980690e-01 1.696318e+03 
5.159230e-01 1.640185e+03 
5.317440e-01 1.593636e+03 
5.489640e-01 1.545598e+03 
5.671990e-01 1.497629e+03 
5.838690e-01 1.456310e+03 
6.018840e-01 1.414090e+03 
6.202330e-01 1.372999e+03 
6.379250e-01 1.335763e+03 
6.545410e-01 1.302201e+03 
6.714560e-01 1.269603e+03 
6.892080e-01 1.236774e+03 
7.066010e-01 1.206157e+03 
7.240540e-01 1.176624e+03 
7.420450e-01 1.147177e+03 
7.593780e-01 1.120138e+03 
7.764720e-01 1.094231e+03 
7.942840e-01 1.068212e+03 
8.116170e-01 1.043913e+03 
8.288310e-01 1.020470e+03 
8.462240e-01 9.976359e+02 
8.631980e-01 9.759657e+02 
8.810700e-01 9.539064e+02 
8.989410e-01 9.325744e+02 
9.166330e-01 9.121784e+02 
9.345640e-01 8.920149e+02 
9.515980e-01 8.734689e+02 
9.688720e-01 8.551963e+02 
9.865640e-01 8.369999e+02 
1.031870e+00 7.928684e+02 
1.063490e+00 7.639975e+02 
1.097920e+00 7.339890e+02 
1.134370e+00 7.040624e+02 
1.167730e+00 6.782453e+02 
1.203830e+00 6.516015e+02 
1.240470e+00 6.261332e+02 
1.275790e+00 6.027829e+02 
1.309140e+00 5.818310e+02 
1.342970e+00 5.616094e+02 
1.378420e+00 5.414502e+02 
1.413200e+00 5.226857e+02 
1.448110e+00 5.047373e+02 
1.484090e+00 4.871232e+02 
1.518820e+00 4.709215e+02 
1.552880e+00 4.558196e+02 
1.588630e+00 4.406486e+02 
1.623230e+00 4.266125e+02 
1.657720e+00 4.132717e+02 
1.692450e+00 4.004364e+02 
1.726400e+00 3.884194e+02 
1.762200e+00 3.763503e+02 
1.797880e+00 3.647797e+02 
1.833270e+00 3.538426e+02 
1.869070e+00 3.432341e+02 
1.903200e+00 3.335280e+02 
1.937740e+00 3.240831e+02 
1.973190e+00 3.147910e+02 
2.007440e+00 3.062040e+02 
2.042160e+00 2.978254e+02 
2.077900e+00 2.895257e+02 
2.112390e+00 2.818156e+02 
2.146220e+00 2.745753e+02 
2.181600e+00 2.672274e+02 
2.216930e+00 2.601880e+02 
2.250760e+00 2.537238e+02 
2.286500e+00 2.471364e+02 
2.321770e+00 2.408426e+02 
2.355950e+00 2.349858e+02 
2.391280e+00 2.291330e+02 
2.426240e+00 2.235377e+02 
2.460670e+00 2.182243e+02 
2.495640e+00 2.130245e+02 
2.531080e+00 2.078905e+02 
2.566220e+00 2.029910e+02 
2.600830e+00 1.983415e+02 
2.635080e+00 1.939029e+02 
2.670340e+00 1.894390e+02 
2.705970e+00 1.850908e+02 
2.740040e+00 1.810723e+02 
2.774520e+00 1.771224e+02 
2.809730e+00 1.732291e+02 
2.844390e+00 1.695194e+02 
2.879960e+00 1.658223e+02 
2.914860e+00 1.623007e+02 
2.949410e+00 1.589165e+02 
2.984440e+00 1.555800e+02 
3.019760e+00 1.523259e+02 
3.054730e+00 1.492049e+02 
3.089030e+00 1.462249e+02 
3.124060e+00 1.432748e+02 
3.159560e+00 1.403794e+02 
3.194710e+00 1.375884e+02 
3.229010e+00 1.349393e+02 
3.263320e+00 1.323559e+02 
3.297930e+00 1.298249e+02 
3.332830e+00 1.273492e+02 
3.368040e+00 1.249163e+02 
3.403300e+00 1.225439e+02 
3.438450e+00 1.202498e+02 
3.473060e+00 1.180527e+02 
3.508440e+00 1.158599e+02 
3.543110e+00 1.137668e+02 
3.577470e+00 1.117414e+02 
3.613040e+00 1.097006e+02 
3.648120e+00 1.077450e+02 
3.682910e+00 1.058530e+02 
3.718050e+00 1.039870e+02 
3.753320e+00 1.021635e+02 
3.787980e+00 1.004197e+02 
3.822290e+00 9.873367e+01 
3.857020e+00 9.706560e+01 
3.891920e+00 9.543161e+01 
3.926650e+00 9.384807e+01 
3.961970e+00 9.227469e+01 
3.997360e+00 9.073305e+01 
4.031670e+00 8.927421e+01 
4.066330e+00 8.783896e+01 
4.101420e+00 8.641919e+01 
4.136200e+00 8.504903e+01 
4.170810e+00 8.371596e+01 
4.206250e+00 8.237905e+01 
4.241580e+00 8.107571e+01 
4.276300e+00 7.982116e+01 
4.310970e+00 7.859450e+01 
4.346120e+00 7.737966e+01 
4.380600e+00 7.621665e+01 
4.414730e+00 7.508966e+01 
4.450350e+00 7.394322e+01 
4.485320e+00 7.284155e+01 
4.519810e+00 7.177594e+01 
4.555430e+00 7.069756e+01 
4.590870e+00 6.964836e+01 
4.625480e+00 6.864737e+01 
4.659910e+00 6.767151e+01 
4.695230e+00 6.669435e+01 
4.729960e+00 6.575330e+01 
4.764450e+00 6.483635e+01 
4.799530e+00 6.392074e+01 
4.834910e+00 6.301551e+01 
4.869700e+00 6.214586e+01 
4.904370e+00 6.129633e+01 
4.939450e+00 6.045272e+01 
4.973940e+00 5.963784e+01 
5.008430e+00 5.883818e+01 
5.043810e+00 5.803548e+01 
5.078840e+00 5.725694e+01 
5.113500e+00 5.650086e+01 
5.148890e+00 5.574621e+01 
5.184210e+00 5.500712e+01 
5.219060e+00 5.429080e+01 
5.253660e+00 5.359132e+01 
5.288570e+00 5.289820e+01 
5.323420e+00 5.222002e+01 
5.358440e+00 5.155219e+01 
5.393590e+00 5.089375e+01 
5.428310e+00 5.025657e+01 
5.462800e+00 4.963547e+01 
5.497640e+00 4.901884e+01 
5.532670e+00 4.840854e+01 
5.567280e+00 4.781553e+01 
5.602000e+00 4.723069e+01 
5.637270e+00 4.664868e+01 
5.672410e+00 4.607911e+01 
5.707020e+00 4.552748e+01 
5.742040e+00 4.498062e+01 
5.777430e+00 4.443758e+01 
5.812210e+00 4.391270e+01 
5.846820e+00 4.339795e+01 
5.881610e+00 4.288865e+01 
5.916510e+00 4.238597e+01 
5.951600e+00 4.188815e+01 
5.986560e+00 4.139988e+01 
6.021830e+00 4.091517e+01 
6.056490e+00 4.044746e+01 
6.091160e+00 3.998783e+01 
6.125830e+00 3.953534e+01 
6.161090e+00 3.908292e+01 
6.195760e+00 3.864623e+01 
6.230420e+00 3.821635e+01 
6.265690e+00 3.778558e+01 
6.300950e+00 3.736100e+01 
6.335620e+00 3.694986e+01 
6.370880e+00 3.653805e+01 
6.405550e+00 3.614034e+01 
6.440220e+00 3.574898e+01 
6.475480e+00 3.535688e+01 
6.510150e+00 3.497688e+01 
6.544810e+00 3.460214e+01 
6.580080e+00 3.422640e+01 
6.614750e+00 3.386246e+01 
6.649410e+00 3.350521e+01 
6.684080e+00 3.315325e+01 
6.719340e+00 3.280045e+01 
6.754010e+00 3.245834e+01 
6.788680e+00 3.212065e+01 
6.823940e+00 3.178208e+01 
6.859800e+00 3.144271e+01 
6.894470e+00 3.111890e+01 
6.929140e+00 3.079947e+01 
6.963800e+00 3.048455e+01 
6.999070e+00 3.016863e+01 
7.033730e+00 2.986374e+01 
7.068400e+00 2.956293e+01 
7.103660e+00 2.926119e+01 
7.138330e+00 2.896841e+01 
7.173600e+00 2.867435e+01 
7.208260e+00 2.838928e+01 
7.243530e+00 2.810311e+01 
7.277600e+00 2.783100e+01 
7.312860e+00 2.755370e+01 
7.348120e+00 2.728011e+01 
7.382790e+00 2.701465e+01 
7.417460e+00 2.675243e+01 
7.452720e+00 2.648912e+01 
7.487390e+00 2.623360e+01 
7.522650e+00 2.597712e+01 
7.557320e+00 2.572798e+01 
7.591990e+00 2.548195e+01 
7.627250e+00 2.523497e+01 
7.662510e+00 2.499117e+01 
7.697180e+00 2.475432e+01 
7.731850e+00 2.452037e+01 
7.766510e+00 2.428944e+01 
7.801180e+00 2.406133e+01 
7.836440e+00 2.383295e+01 
7.871110e+00 2.361163e+01 
7.906380e+00 2.338928e+01 
7.941040e+00 2.317349e+01 
7.976310e+00 2.295593e+01 
8.011570e+00 2.274031e+01 
8.046240e+00 2.253091e+01 
8.080900e+00 2.232412e+01 
8.115570e+00 2.212000e+01 
8.150830e+00 2.191573e+01 
8.185500e+00 2.171732e+01 
8.220770e+00 2.151791e+01 
8.255430e+00 2.132431e+01 
8.290100e+00 2.113380e+01 
8.324770e+00 2.094564e+01 
8.359430e+00 2.075975e+01 
8.394700e+00 2.057282e+01 
8.429960e+00 2.038759e+01 
8.464630e+00 2.020700e+01 
8.499890e+00 2.002550e+01 
8.534560e+00 1.984912e+01 
8.569200e+00 1.967494e+01 
