# Parameters:
# omega_b = 0.022700, omega_m = 0.141300, n_s = 0.968100, h = 67.900000, w = -1.000000, sigma_8 = 0.815400
# z = 0.000000
#
# k[1/Mpc] # P(k):
8.694000e-04 1.562460e+04 
2.077466e-03 3.350462e+04 
3.285532e-03 4.752740e+04 
4.493598e-03 5.835060e+04 
5.701664e-03 6.641045e+04 
6.909730e-03 7.215030e+04 
8.117797e-03 7.607533e+04 
9.325863e-03 7.844210e+04 
1.053393e-02 7.950623e+04 
1.174199e-02 7.950392e+04 
1.295006e-02 7.858762e+04 
1.415813e-02 7.696844e+04 
1.536619e-02 7.482257e+04 
1.657426e-02 7.226849e+04 
1.778233e-02 6.939468e+04 
1.899039e-02 6.636576e+04 
2.019846e-02 6.331732e+04 
2.140652e-02 6.033880e+04 
2.261459e-02 5.745615e+04 
2.382266e-02 5.471301e+04 
2.503072e-02 5.214265e+04 
2.623879e-02 4.976073e+04 
2.744685e-02 4.757188e+04 
2.865492e-02 4.558037e+04 
2.986299e-02 4.377832e+04 
3.100100e-02 4.225077e+04 
3.220400e-02 4.079919e+04 
3.288100e-02 4.005263e+04 
3.424300e-02 3.868669e+04 
3.555100e-02 3.753071e+04 
3.686000e-02 3.649323e+04 
3.795000e-02 3.570889e+04 
3.929100e-02 3.482818e+04 
4.039800e-02 3.415027e+04 
4.164000e-02 3.342100e+04 
4.294400e-02 3.267296e+04 
4.415000e-02 3.199967e+04 
4.542900e-02 3.126966e+04 
4.660900e-02 3.058943e+04 
4.782300e-02 2.985971e+04 
4.892900e-02 2.917971e+04 
5.031200e-02 2.830301e+04 
5.155900e-02 2.748800e+04 
5.238100e-02 2.694224e+04 
5.378200e-02 2.600392e+04 
5.513400e-02 2.508697e+04 
5.627600e-02 2.431744e+04 
5.735300e-02 2.360336e+04 
5.870100e-02 2.272610e+04 
5.988700e-02 2.198142e+04 
6.113500e-02 2.123026e+04 
6.225900e-02 2.058514e+04 
6.340100e-02 1.996232e+04 
6.480200e-02 1.924898e+04 
6.601100e-02 1.868071e+04 
6.725500e-02 1.814109e+04 
6.829100e-02 1.773096e+04 
6.958600e-02 1.725730e+04 
7.071100e-02 1.688246e+04 
7.192300e-02 1.651304e+04 
7.307400e-02 1.619321e+04 
7.412300e-02 1.592546e+04 
7.550400e-02 1.560556e+04 
7.663100e-02 1.536470e+04 
7.791200e-02 1.511134e+04 
7.912700e-02 1.488737e+04 
8.027600e-02 1.468342e+04 
8.138400e-02 1.449232e+04 
8.272200e-02 1.426641e+04 
8.406100e-02 1.404183e+04 
8.534100e-02 1.382397e+04 
8.653800e-02 1.361395e+04 
8.759800e-02 1.342558e+04 
8.900300e-02 1.317058e+04 
9.009000e-02 1.296618e+04 
9.113300e-02 1.276571e+04 
9.239600e-02 1.252097e+04 
9.358000e-02 1.228650e+04 
9.496100e-02 1.201175e+04 
9.608400e-02 1.178941e+04 
9.727500e-02 1.155569e+04 
9.852600e-02 1.131153e+04 
9.973800e-02 1.108173e+04 
1.009000e-01 1.086750e+04 
1.020900e-01 1.065471e+04 
1.034000e-01 1.043052e+04 
1.046000e-01 1.023469e+04 
1.057200e-01 1.006235e+04 
1.069100e-01 9.886859e+03 
1.082500e-01 9.703980e+03 
1.093900e-01 9.556729e+03 
1.105400e-01 9.414287e+03 
1.116900e-01 9.283598e+03 
1.129600e-01 9.145616e+03 
1.142000e-01 9.020461e+03 
1.153300e-01 8.911546e+03 
1.166400e-01 8.792028e+03 
1.177800e-01 8.691589e+03 
1.190000e-01 8.587140e+03 
1.201200e-01 8.494728e+03 
1.213400e-01 8.396655e+03 
1.227100e-01 8.287026e+03 
1.238900e-01 8.194353e+03 
1.250700e-01 8.101738e+03 
1.263200e-01 8.004597e+03 
1.275500e-01 7.908299e+03 
1.287500e-01 7.815347e+03 
1.299900e-01 7.719647e+03 
1.311300e-01 7.631826e+03 
1.323500e-01 7.537192e+03 
1.335900e-01 7.442384e+03 
1.347100e-01 7.357543e+03 
1.359800e-01 7.262772e+03 
1.372100e-01 7.171744e+03 
1.384300e-01 7.083074e+03 
1.395700e-01 7.001107e+03 
1.407700e-01 6.916538e+03 
1.420300e-01 6.829038e+03 
1.432800e-01 6.744112e+03 
1.444500e-01 6.667508e+03 
1.456300e-01 6.591787e+03 
1.468900e-01 6.512816e+03 
1.480500e-01 6.441645e+03 
1.491700e-01 6.374828e+03 
1.503800e-01 6.304793e+03 
1.516400e-01 6.233654e+03 
1.528200e-01 6.169776e+03 
1.540200e-01 6.106046e+03 
1.551900e-01 6.046399e+03 
1.564300e-01 5.984697e+03 
1.576600e-01 5.924907e+03 
1.588700e-01 5.867485e+03 
1.600900e-01 5.810721e+03 
1.612700e-01 5.757903e+03 
1.625400e-01 5.702103e+03 
1.637600e-01 5.649281e+03 
1.649500e-01 5.598551e+03 
1.662200e-01 5.545387e+03 
1.674000e-01 5.496847e+03 
1.685000e-01 5.452346e+03 
1.697500e-01 5.402390e+03 
1.710300e-01 5.351917e+03 
1.722200e-01 5.305816e+03 
1.734400e-01 5.258659e+03 
1.746400e-01 5.213031e+03 
1.758700e-01 5.166813e+03 
1.770900e-01 5.121257e+03 
1.782700e-01 5.077921e+03 
1.794600e-01 5.034528e+03 
1.807000e-01 4.989790e+03 
1.819100e-01 4.946854e+03 
1.830100e-01 4.908480e+03 
1.842200e-01 4.866927e+03 
1.855000e-01 4.823708e+03 
1.867000e-01 4.784213e+03 
1.879200e-01 4.744694e+03 
1.890900e-01 4.707363e+03 
1.902800e-01 4.669886e+03 
1.915200e-01 4.631440e+03 
1.926900e-01 4.595844e+03 
1.939000e-01 4.559992e+03 
1.951700e-01 4.522946e+03 
1.963100e-01 4.490318e+03 
1.975100e-01 4.456804e+03 
1.987800e-01 4.421874e+03 
2.000100e-01 4.388599e+03 
2.012500e-01 4.355642e+03 
2.023400e-01 4.327081e+03 
2.036100e-01 4.294299e+03 
2.048900e-01 4.261858e+03 
2.060400e-01 4.233132e+03 
2.072200e-01 4.204073e+03 
2.084200e-01 4.175061e+03 
2.096900e-01 4.144800e+03 
2.109200e-01 4.115917e+03 
2.121100e-01 4.088240e+03 
2.132700e-01 4.061619e+03 
2.145200e-01 4.033327e+03 
2.157200e-01 4.006518e+03 
2.168800e-01 3.980937e+03 
2.180700e-01 3.955041e+03 
2.193400e-01 3.927774e+03 
2.206000e-01 3.901085e+03 
2.217500e-01 3.877050e+03 
2.229500e-01 3.852294e+03 
2.241400e-01 3.828148e+03 
2.253500e-01 3.803918e+03 
2.264900e-01 3.781379e+03 
2.277100e-01 3.757848e+03 
2.289900e-01 3.733803e+03 
2.301500e-01 3.712296e+03 
2.313600e-01 3.690145e+03 
2.325600e-01 3.668591e+03 
2.337700e-01 3.647132e+03 
2.350000e-01 3.625597e+03 
2.362000e-01 3.605116e+03 
2.374100e-01 3.585035e+03 
2.386500e-01 3.564716e+03 
2.399100e-01 3.544334e+03 
2.410400e-01 3.526328e+03 
2.422500e-01 3.507283e+03 
2.435000e-01 3.487853e+03 
2.447300e-01 3.469096e+03 
2.458700e-01 3.452410e+03 
2.470600e-01 3.435197e+03 
2.483300e-01 3.417052e+03 
2.495600e-01 3.399660e+03 
2.507600e-01 3.382845e+03 
2.519600e-01 3.366229e+03 
2.532200e-01 3.348993e+03 
2.543700e-01 3.333449e+03 
2.555500e-01 3.317682e+03 
2.568000e-01 3.301177e+03 
2.580100e-01 3.285389e+03 
2.592400e-01 3.269489e+03 
2.604100e-01 3.254522e+03 
2.616100e-01 3.239343e+03 
2.628400e-01 3.223964e+03 
2.640600e-01 3.208805e+03 
2.652200e-01 3.194521e+03 
2.664300e-01 3.179786e+03 
2.676500e-01 3.165097e+03 
2.688400e-01 3.150640e+03 
2.700700e-01 3.135682e+03 
2.712400e-01 3.121610e+03 
2.724800e-01 3.106860e+03 
2.736700e-01 3.092812e+03 
2.748800e-01 3.078634e+03 
2.761000e-01 3.064494e+03 
2.773200e-01 3.050508e+03 
2.785400e-01 3.036552e+03 
2.797000e-01 3.023166e+03 
2.808900e-01 3.009575e+03 
2.821400e-01 2.995452e+03 
2.833900e-01 2.981476e+03 
2.845500e-01 2.968486e+03 
2.857800e-01 2.954854e+03 
2.870300e-01 2.941148e+03 
2.882100e-01 2.928345e+03 
2.893900e-01 2.915486e+03 
2.906300e-01 2.902014e+03 
2.918900e-01 2.888469e+03 
2.930500e-01 2.876125e+03 
2.942500e-01 2.863488e+03 
2.954200e-01 2.851304e+03 
2.966500e-01 2.838622e+03 
2.978900e-01 2.825969e+03 
2.990400e-01 2.814350e+03 
3.002700e-01 2.801869e+03 
3.015100e-01 2.789329e+03 
3.026800e-01 2.777613e+03 
3.038500e-01 2.766008e+03 
3.050300e-01 2.754416e+03 
3.062600e-01 2.742513e+03 
3.075000e-01 2.730633e+03 
3.087000e-01 2.719248e+03 
3.099100e-01 2.707879e+03 
3.111200e-01 2.696581e+03 
3.123100e-01 2.685511e+03 
3.135300e-01 2.674269e+03 
3.147300e-01 2.663317e+03 
3.159900e-01 2.651928e+03 
3.171800e-01 2.641224e+03 
3.183700e-01 2.630588e+03 
3.196300e-01 2.619432e+03 
3.208400e-01 2.608821e+03 
3.220300e-01 2.598481e+03 
3.232000e-01 2.588436e+03 
3.244300e-01 2.577984e+03 
3.256700e-01 2.567546e+03 
3.269200e-01 2.557123e+03 
3.280800e-01 2.547538e+03 
3.292500e-01 2.537972e+03 
3.304800e-01 2.528010e+03 
3.317100e-01 2.518139e+03 
3.328900e-01 2.508755e+03 
3.340700e-01 2.499452e+03 
3.353600e-01 2.489400e+03 
3.365300e-01 2.480375e+03 
3.377100e-01 2.471351e+03 
3.389200e-01 2.462179e+03 
3.401600e-01 2.452863e+03 
3.413700e-01 2.443864e+03 
3.425300e-01 2.435318e+03 
3.437700e-01 2.426262e+03 
3.449800e-01 2.417503e+03 
3.461800e-01 2.408892e+03 
3.473600e-01 2.400503e+03 
3.485800e-01 2.391922e+03 
3.498100e-01 2.383345e+03 
3.510200e-01 2.374982e+03 
3.522000e-01 2.366894e+03 
3.533900e-01 2.358806e+03 
3.546400e-01 2.350480e+03 
3.558400e-01 2.342562e+03 
3.570600e-01 2.334579e+03 
3.582700e-01 2.326730e+03 
3.595000e-01 2.318818e+03 
3.607100e-01 2.311059e+03 
3.618900e-01 2.303522e+03 
3.631200e-01 2.295730e+03 
3.643200e-01 2.288193e+03 
3.655500e-01 2.280531e+03 
3.667300e-01 2.273240e+03 
3.679500e-01 2.265759e+03 
3.691900e-01 2.258218e+03 
3.703600e-01 2.251160e+03 
3.715700e-01 2.243920e+03 
3.727700e-01 2.236798e+03 
3.739900e-01 2.229627e+03 
3.752000e-01 2.222591e+03 
3.763900e-01 2.215728e+03 
3.775800e-01 2.208919e+03 
3.788200e-01 2.201881e+03 
3.800300e-01 2.195068e+03 
3.812100e-01 2.188469e+03 
3.824200e-01 2.181749e+03 
3.836100e-01 2.175192e+03 
3.848600e-01 2.168359e+03 
3.860400e-01 2.161960e+03 
3.872400e-01 2.155503e+03 
3.884600e-01 2.149003e+03 
3.896500e-01 2.142717e+03 
3.908700e-01 2.136322e+03 
3.920600e-01 2.130133e+03 
3.933100e-01 2.123683e+03 
3.945300e-01 2.117438e+03 
3.957200e-01 2.111331e+03 
3.969300e-01 2.105151e+03 
3.981700e-01 2.098867e+03 
3.993500e-01 2.092933e+03 
4.094840e-01 2.043770e+03 
4.272360e-01 1.963543e+03 
4.454600e-01 1.887696e+03 
4.630560e-01 1.820134e+03 
4.804610e-01 1.757453e+03 
4.980690e-01 1.698664e+03 
5.159230e-01 1.642496e+03 
5.317440e-01 1.595916e+03 
5.489640e-01 1.547845e+03 
5.671990e-01 1.499842e+03 
5.838690e-01 1.458493e+03 
6.018840e-01 1.416240e+03 
6.202330e-01 1.375116e+03 
6.379250e-01 1.337849e+03 
6.545410e-01 1.304257e+03 
6.714560e-01 1.271628e+03 
6.892080e-01 1.238768e+03 
7.066010e-01 1.208121e+03 
7.240540e-01 1.178557e+03 
7.420450e-01 1.149077e+03 
7.593780e-01 1.122008e+03 
7.764720e-01 1.096070e+03 
7.942840e-01 1.070019e+03 
8.116170e-01 1.045690e+03 
8.288310e-01 1.022217e+03 
8.462240e-01 9.993525e+02 
8.631980e-01 9.776530e+02 
8.810700e-01 9.555632e+02 
8.989410e-01 9.342011e+02 
9.166330e-01 9.137759e+02 
9.345640e-01 8.935828e+02 
9.515980e-01 8.750093e+02 
9.688720e-01 8.567091e+02 
9.865640e-01 8.384849e+02 
1.031870e+00 7.942848e+02 
1.063490e+00 7.653678e+02 
1.097920e+00 7.353107e+02 
1.134370e+00 7.053351e+02 
1.167730e+00 6.794751e+02 
1.203830e+00 6.527866e+02 
1.240470e+00 6.272754e+02 
1.275790e+00 6.038853e+02 
1.309140e+00 5.828975e+02 
1.342970e+00 5.626410e+02 
1.378420e+00 5.424470e+02 
1.413200e+00 5.236499e+02 
1.448110e+00 5.056702e+02 
1.484090e+00 4.880253e+02 
1.518820e+00 4.717953e+02 
1.552880e+00 4.566668e+02 
1.588630e+00 4.414692e+02 
1.623230e+00 4.274083e+02 
1.657720e+00 4.140439e+02 
1.692450e+00 4.011859e+02 
1.726400e+00 3.891476e+02 
1.762200e+00 3.770570e+02 
1.797880e+00 3.654659e+02 
1.833270e+00 3.545093e+02 
1.869070e+00 3.438820e+02 
1.903200e+00 3.341586e+02 
1.937740e+00 3.246968e+02 
1.973190e+00 3.153881e+02 
2.007440e+00 3.067858e+02 
2.042160e+00 2.983921e+02 
2.077900e+00 2.900776e+02 
2.112390e+00 2.823537e+02 
2.146220e+00 2.751004e+02 
2.181600e+00 2.677393e+02 
2.216930e+00 2.606873e+02 
2.250760e+00 2.542114e+02 
2.286500e+00 2.476122e+02 
2.321770e+00 2.413071e+02 
2.355950e+00 2.354397e+02 
2.391280e+00 2.295763e+02 
2.426240e+00 2.239709e+02 
2.460670e+00 2.186480e+02 
2.495640e+00 2.134388e+02 
2.531080e+00 2.082955e+02 
2.566220e+00 2.033871e+02 
2.600830e+00 1.987292e+02 
2.635080e+00 1.942825e+02 
2.670340e+00 1.898105e+02 
2.705970e+00 1.854545e+02 
2.740040e+00 1.814287e+02 
2.774520e+00 1.774716e+02 
2.809730e+00 1.735712e+02 
2.844390e+00 1.698548e+02 
2.879960e+00 1.661509e+02 
2.914860e+00 1.626229e+02 
2.949410e+00 1.592325e+02 
2.984440e+00 1.558900e+02 
3.019760e+00 1.526299e+02 
3.054730e+00 1.495032e+02 
3.089030e+00 1.465178e+02 
3.124060e+00 1.435623e+02 
3.159560e+00 1.406615e+02 
3.194710e+00 1.378654e+02 
3.229010e+00 1.352114e+02 
3.263320e+00 1.326233e+02 
3.297930e+00 1.300876e+02 
3.332830e+00 1.276074e+02 
3.368040e+00 1.251700e+02 
3.403300e+00 1.227932e+02 
3.438450e+00 1.204949e+02 
3.473060e+00 1.182937e+02 
3.508440e+00 1.160969e+02 
3.543110e+00 1.139999e+02 
3.577470e+00 1.119708e+02 
3.613040e+00 1.099262e+02 
3.648120e+00 1.079670e+02 
3.682910e+00 1.060715e+02 
3.718050e+00 1.042019e+02 
3.753320e+00 1.023751e+02 
3.787980e+00 1.006280e+02 
3.822290e+00 9.893884e+01 
3.857020e+00 9.726764e+01 
3.891920e+00 9.563060e+01 
3.926650e+00 9.404410e+01 
3.961970e+00 9.246776e+01 
3.997360e+00 9.092323e+01 
4.031670e+00 8.946165e+01 
4.066330e+00 8.802370e+01 
4.101420e+00 8.660125e+01 
4.136200e+00 8.522852e+01 
4.170810e+00 8.389294e+01 
4.206250e+00 8.255350e+01 
4.241580e+00 8.124770e+01 
4.276300e+00 7.999077e+01 
4.310970e+00 7.876178e+01 
4.346120e+00 7.754464e+01 
4.380600e+00 7.637941e+01 
4.414730e+00 7.525027e+01 
4.450350e+00 7.410165e+01 
4.485320e+00 7.299788e+01 
4.519810e+00 7.193023e+01 
4.555430e+00 7.084978e+01 
4.590870e+00 6.979857e+01 
4.625480e+00 6.879566e+01 
4.659910e+00 6.781793e+01 
4.695230e+00 6.683888e+01 
4.729960e+00 6.589602e+01 
4.764450e+00 6.497729e+01 
4.799530e+00 6.405992e+01 
4.834910e+00 6.315294e+01 
4.869700e+00 6.228160e+01 
4.904370e+00 6.143041e+01 
4.939450e+00 6.058517e+01 
4.973940e+00 5.976869e+01 
5.008430e+00 5.896747e+01 
5.043810e+00 5.816321e+01 
5.078840e+00 5.738314e+01 
5.113500e+00 5.662558e+01 
5.148890e+00 5.586945e+01 
5.184210e+00 5.512890e+01 
5.219060e+00 5.441117e+01 
5.253660e+00 5.371031e+01 
5.288570e+00 5.301582e+01 
5.323420e+00 5.233630e+01 
5.358440e+00 5.166714e+01 
5.393590e+00 5.100739e+01 
5.428310e+00 5.036894e+01 
5.462800e+00 4.974661e+01 
5.497640e+00 4.912875e+01 
5.532670e+00 4.851722e+01 
5.567280e+00 4.792302e+01 
5.602000e+00 4.733701e+01 
5.637270e+00 4.675382e+01 
5.672410e+00 4.618310e+01 
5.707020e+00 4.563036e+01 
5.742040e+00 4.508239e+01 
5.777430e+00 4.453826e+01 
5.812210e+00 4.401231e+01 
5.846820e+00 4.349652e+01 
5.881610e+00 4.298617e+01 
5.916510e+00 4.248247e+01 
5.951600e+00 4.198362e+01 
5.986560e+00 4.149435e+01 
6.021830e+00 4.100865e+01 
6.056490e+00 4.053998e+01 
6.091160e+00 4.007940e+01 
6.125830e+00 3.962597e+01 
6.161090e+00 3.917261e+01 
6.195760e+00 3.873502e+01 
6.230420e+00 3.830425e+01 
6.265690e+00 3.787258e+01 
6.300950e+00 3.744711e+01 
6.335620e+00 3.703512e+01 
6.370880e+00 3.662245e+01 
6.405550e+00 3.622390e+01 
6.440220e+00 3.583172e+01 
6.475480e+00 3.543880e+01 
6.510150e+00 3.505799e+01 
6.544810e+00 3.468246e+01 
6.580080e+00 3.430593e+01 
6.614750e+00 3.394121e+01 
6.649410e+00 3.358320e+01 
6.684080e+00 3.323049e+01 
6.719340e+00 3.287694e+01 
6.754010e+00 3.253410e+01 
6.788680e+00 3.219568e+01 
6.823940e+00 3.185639e+01 
6.859800e+00 3.151629e+01 
6.894470e+00 3.119178e+01 
6.929140e+00 3.087166e+01 
6.963800e+00 3.055606e+01 
6.999070e+00 3.023945e+01 
7.033730e+00 2.993390e+01 
7.068400e+00 2.963243e+01 
7.103660e+00 2.933003e+01 
7.138330e+00 2.903662e+01 
7.173600e+00 2.874191e+01 
7.208260e+00 2.845622e+01 
7.243530e+00 2.816943e+01 
7.277600e+00 2.789671e+01 
7.312860e+00 2.761880e+01 
7.348120e+00 2.734460e+01 
7.382790e+00 2.707857e+01 
7.417460e+00 2.681576e+01 
7.452720e+00 2.655186e+01 
7.487390e+00 2.629578e+01 
7.522650e+00 2.603872e+01 
7.557320e+00 2.578903e+01 
7.591990e+00 2.554245e+01 
7.627250e+00 2.529491e+01 
7.662510e+00 2.505057e+01 
7.697180e+00 2.481318e+01 
7.731850e+00 2.457871e+01 
7.766510e+00 2.434726e+01 
7.801180e+00 2.411863e+01 
7.836440e+00 2.388974e+01 
7.871110e+00 2.366791e+01 
7.906380e+00 2.344506e+01 
7.941040e+00 2.322878e+01 
7.976310e+00 2.301072e+01 
8.011570e+00 2.279461e+01 
8.046240e+00 2.258473e+01 
8.080900e+00 2.237747e+01 
8.115570e+00 2.217288e+01 
8.150830e+00 2.196814e+01 
8.185500e+00 2.176927e+01 
8.220770e+00 2.156941e+01 
8.255430e+00 2.137536e+01 
8.290100e+00 2.118441e+01 
8.324770e+00 2.099581e+01 
8.359430e+00 2.080949e+01 
8.394700e+00 2.062213e+01 
8.429960e+00 2.043646e+01 
8.464630e+00 2.025545e+01 
8.499890e+00 2.007353e+01 
8.534560e+00 1.989674e+01 
8.569200e+00 1.972215e+01 
