# Parameters:
# omega_b = 0.023300, omega_m = 0.141300, n_s = 0.968100, h = 67.900000, w = -1.000000, sigma_8 = 0.815400
# z = 0.000000
#
# k[1/Mpc] # P(k):
8.694000e-04 1.585755e+04 
2.077466e-03 3.399046e+04 
3.285532e-03 4.820539e+04 
4.493598e-03 5.918814e+04 
5.701664e-03 6.735273e+04 
6.909730e-03 7.315869e+04 
8.117797e-03 7.712795e+04 
9.325863e-03 7.952171e+04 
1.053393e-02 8.059516e+04 
1.174199e-02 8.058169e+04 
1.295006e-02 7.963534e+04 
1.415813e-02 7.797116e+04 
1.536619e-02 7.576679e+04 
1.657426e-02 7.312774e+04 
1.778233e-02 7.008522e+04 
1.899039e-02 6.683178e+04 
2.019846e-02 6.363050e+04 
2.140652e-02 6.058250e+04 
2.261459e-02 5.766116e+04 
2.382266e-02 5.488732e+04 
2.503072e-02 5.229067e+04 
2.623879e-02 4.988641e+04 
2.744685e-02 4.767911e+04 
2.865492e-02 4.567249e+04 
2.986299e-02 4.385825e+04 
3.100100e-02 4.232169e+04 
3.220400e-02 4.086271e+04 
3.288100e-02 4.011288e+04 
3.424300e-02 3.874176e+04 
3.555100e-02 3.758214e+04 
3.686000e-02 3.654198e+04 
3.795000e-02 3.575585e+04 
3.929100e-02 3.487326e+04 
4.039800e-02 3.419380e+04 
4.164000e-02 3.346268e+04 
4.294400e-02 3.271226e+04 
4.415000e-02 3.203645e+04 
4.542900e-02 3.130316e+04 
4.660900e-02 3.061955e+04 
4.782300e-02 2.988575e+04 
4.892900e-02 2.920176e+04 
5.031200e-02 2.831974e+04 
5.155900e-02 2.749971e+04 
5.238100e-02 2.695062e+04 
5.378200e-02 2.600670e+04 
5.513400e-02 2.508457e+04 
5.627600e-02 2.431097e+04 
5.735300e-02 2.359338e+04 
5.870100e-02 2.271226e+04 
5.988700e-02 2.196470e+04 
6.113500e-02 2.121105e+04 
6.225900e-02 2.056418e+04 
6.340100e-02 1.994003e+04 
6.480200e-02 1.922555e+04 
6.601100e-02 1.865676e+04 
6.725500e-02 1.811696e+04 
6.829100e-02 1.770691e+04 
6.958600e-02 1.723352e+04 
7.071100e-02 1.685906e+04 
7.192300e-02 1.649012e+04 
7.307400e-02 1.617079e+04 
7.412300e-02 1.590351e+04 
7.550400e-02 1.558420e+04 
7.663100e-02 1.534378e+04 
7.791200e-02 1.509085e+04 
7.912700e-02 1.486721e+04 
8.027600e-02 1.466350e+04 
8.138400e-02 1.447258e+04 
8.272200e-02 1.424678e+04 
8.406100e-02 1.402223e+04 
8.534100e-02 1.380429e+04 
8.653800e-02 1.359410e+04 
8.759800e-02 1.340554e+04 
8.900300e-02 1.315018e+04 
9.009000e-02 1.294544e+04 
9.113300e-02 1.274458e+04 
9.239600e-02 1.249933e+04 
9.358000e-02 1.226432e+04 
9.496100e-02 1.198889e+04 
9.608400e-02 1.176598e+04 
9.727500e-02 1.153166e+04 
9.852600e-02 1.128687e+04 
9.973800e-02 1.105650e+04 
1.009000e-01 1.084176e+04 
1.020900e-01 1.062855e+04 
1.034000e-01 1.040395e+04 
1.046000e-01 1.020782e+04 
1.057200e-01 1.003533e+04 
1.069100e-01 9.859747e+03 
1.082500e-01 9.676899e+03 
1.093900e-01 9.529774e+03 
1.105400e-01 9.387514e+03 
1.116900e-01 9.257126e+03 
1.129600e-01 9.119507e+03 
1.142000e-01 8.994795e+03 
1.153300e-01 8.886299e+03 
1.166400e-01 8.767295e+03 
1.177800e-01 8.667305e+03 
1.190000e-01 8.563332e+03 
1.201200e-01 8.471316e+03 
1.213400e-01 8.373658e+03 
1.227100e-01 8.264400e+03 
1.238900e-01 8.172015e+03 
1.250700e-01 8.079606e+03 
1.263200e-01 7.982646e+03 
1.275500e-01 7.886452e+03 
1.287500e-01 7.793564e+03 
1.299900e-01 7.697872e+03 
1.311300e-01 7.610036e+03 
1.323500e-01 7.515353e+03 
1.335900e-01 7.420486e+03 
1.347100e-01 7.335576e+03 
1.359800e-01 7.240729e+03 
1.372100e-01 7.149632e+03 
1.384300e-01 7.060904e+03 
1.395700e-01 6.978901e+03 
1.407700e-01 6.894301e+03 
1.420300e-01 6.806808e+03 
1.432800e-01 6.721891e+03 
1.444500e-01 6.645337e+03 
1.456300e-01 6.569666e+03 
1.468900e-01 6.490783e+03 
1.480500e-01 6.419704e+03 
1.491700e-01 6.352989e+03 
1.503800e-01 6.283081e+03 
1.516400e-01 6.212076e+03 
1.528200e-01 6.148341e+03 
1.540200e-01 6.084754e+03 
1.551900e-01 6.025254e+03 
1.564300e-01 5.963707e+03 
1.576600e-01 5.904071e+03 
1.588700e-01 5.846799e+03 
1.600900e-01 5.790184e+03 
1.612700e-01 5.737499e+03 
1.625400e-01 5.681839e+03 
1.637600e-01 5.629142e+03 
1.649500e-01 5.578529e+03 
1.662200e-01 5.525484e+03 
1.674000e-01 5.477036e+03 
1.685000e-01 5.432621e+03 
1.697500e-01 5.382751e+03 
1.710300e-01 5.332356e+03 
1.722200e-01 5.286327e+03 
1.734400e-01 5.239227e+03 
1.746400e-01 5.193656e+03 
1.758700e-01 5.147493e+03 
1.770900e-01 5.101986e+03 
1.782700e-01 5.058696e+03 
1.794600e-01 5.015351e+03 
1.807000e-01 4.970663e+03 
1.819100e-01 4.927775e+03 
1.830100e-01 4.889450e+03 
1.842200e-01 4.847951e+03 
1.855000e-01 4.804789e+03 
1.867000e-01 4.765359e+03 
1.879200e-01 4.725903e+03 
1.890900e-01 4.688636e+03 
1.902800e-01 4.651235e+03 
1.915200e-01 4.612868e+03 
1.926900e-01 4.577349e+03 
1.939000e-01 4.541584e+03 
1.951700e-01 4.504629e+03 
1.963100e-01 4.472082e+03 
1.975100e-01 4.438659e+03 
1.987800e-01 4.403824e+03 
2.000100e-01 4.370641e+03 
2.012500e-01 4.337781e+03 
2.023400e-01 4.309302e+03 
2.036100e-01 4.276616e+03 
2.048900e-01 4.244270e+03 
2.060400e-01 4.215629e+03 
2.072200e-01 4.186655e+03 
2.084200e-01 4.157728e+03 
2.096900e-01 4.127555e+03 
2.109200e-01 4.098756e+03 
2.121100e-01 4.071162e+03 
2.132700e-01 4.044620e+03 
2.145200e-01 4.016412e+03 
2.157200e-01 3.989689e+03 
2.168800e-01 3.964192e+03 
2.180700e-01 3.938380e+03 
2.193400e-01 3.911208e+03 
2.206000e-01 3.884625e+03 
2.217500e-01 3.860685e+03 
2.229500e-01 3.836027e+03 
2.241400e-01 3.812005e+03 
2.253500e-01 3.787900e+03 
2.264900e-01 3.765478e+03 
2.277100e-01 3.742088e+03 
2.289900e-01 3.718211e+03 
2.301500e-01 3.696854e+03 
2.313600e-01 3.674857e+03 
2.325600e-01 3.653501e+03 
2.337700e-01 3.632239e+03 
2.350000e-01 3.610902e+03 
2.362000e-01 3.590631e+03 
2.374100e-01 3.570784e+03 
2.386500e-01 3.550702e+03 
2.399100e-01 3.530557e+03 
2.410400e-01 3.512792e+03 
2.422500e-01 3.494007e+03 
2.435000e-01 3.474842e+03 
2.447300e-01 3.456346e+03 
2.458700e-01 3.439914e+03 
2.470600e-01 3.422963e+03 
2.483300e-01 3.405095e+03 
2.495600e-01 3.387968e+03 
2.507600e-01 3.371411e+03 
2.519600e-01 3.355049e+03 
2.532200e-01 3.338077e+03 
2.543700e-01 3.322762e+03 
2.555500e-01 3.307221e+03 
2.568000e-01 3.290952e+03 
2.580100e-01 3.275391e+03 
2.592400e-01 3.259698e+03 
2.604100e-01 3.244916e+03 
2.616100e-01 3.229926e+03 
2.628400e-01 3.214738e+03 
2.640600e-01 3.199741e+03 
2.652200e-01 3.185598e+03 
2.664300e-01 3.171010e+03 
2.676500e-01 3.156467e+03 
2.688400e-01 3.142130e+03 
2.700700e-01 3.127283e+03 
2.712400e-01 3.113314e+03 
2.724800e-01 3.098673e+03 
2.736700e-01 3.084713e+03 
2.748800e-01 3.070609e+03 
2.761000e-01 3.056543e+03 
2.773200e-01 3.042630e+03 
2.785400e-01 3.028740e+03 
2.797000e-01 3.015401e+03 
2.808900e-01 3.001858e+03 
2.821400e-01 2.987785e+03 
2.833900e-01 2.973858e+03 
2.845500e-01 2.960899e+03 
2.857800e-01 2.947300e+03 
2.870300e-01 2.933627e+03 
2.882100e-01 2.920855e+03 
2.893900e-01 2.908021e+03 
2.906300e-01 2.894572e+03 
2.918900e-01 2.881050e+03 
2.930500e-01 2.868728e+03 
2.942500e-01 2.856111e+03 
2.954200e-01 2.843943e+03 
2.966500e-01 2.831279e+03 
2.978900e-01 2.818642e+03 
2.990400e-01 2.807038e+03 
3.002700e-01 2.794572e+03 
3.015100e-01 2.782046e+03 
3.026800e-01 2.770344e+03 
3.038500e-01 2.758752e+03 
3.050300e-01 2.747174e+03 
3.062600e-01 2.735284e+03 
3.075000e-01 2.723416e+03 
3.087000e-01 2.712044e+03 
3.099100e-01 2.700686e+03 
3.111200e-01 2.689401e+03 
3.123100e-01 2.678342e+03 
3.135300e-01 2.667113e+03 
3.147300e-01 2.656172e+03 
3.159900e-01 2.644795e+03 
3.171800e-01 2.634103e+03 
3.183700e-01 2.623478e+03 
3.196300e-01 2.612334e+03 
3.208400e-01 2.601735e+03 
3.220300e-01 2.591406e+03 
3.232000e-01 2.581372e+03 
3.244300e-01 2.570932e+03 
3.256700e-01 2.560506e+03 
3.269200e-01 2.550094e+03 
3.280800e-01 2.540520e+03 
3.292500e-01 2.530965e+03 
3.304800e-01 2.521014e+03 
3.317100e-01 2.511155e+03 
3.328900e-01 2.501782e+03 
3.340700e-01 2.492490e+03 
3.353600e-01 2.482450e+03 
3.365300e-01 2.473435e+03 
3.377100e-01 2.464422e+03 
3.389200e-01 2.455261e+03 
3.401600e-01 2.445956e+03 
3.413700e-01 2.436968e+03 
3.425300e-01 2.428433e+03 
3.437700e-01 2.419388e+03 
3.449800e-01 2.410640e+03 
3.461800e-01 2.402040e+03 
3.473600e-01 2.393662e+03 
3.485800e-01 2.385091e+03 
3.498100e-01 2.376526e+03 
3.510200e-01 2.368172e+03 
3.522000e-01 2.360095e+03 
3.533900e-01 2.352017e+03 
3.546400e-01 2.343702e+03 
3.558400e-01 2.335794e+03 
3.570600e-01 2.327822e+03 
3.582700e-01 2.319983e+03 
3.595000e-01 2.312081e+03 
3.607100e-01 2.304332e+03 
3.618900e-01 2.296805e+03 
3.631200e-01 2.289024e+03 
3.643200e-01 2.281497e+03 
3.655500e-01 2.273845e+03 
3.667300e-01 2.266564e+03 
3.679500e-01 2.259093e+03 
3.691900e-01 2.251563e+03 
3.703600e-01 2.244515e+03 
3.715700e-01 2.237285e+03 
3.727700e-01 2.230172e+03 
3.739900e-01 2.223011e+03 
3.752000e-01 2.215986e+03 
3.763900e-01 2.209132e+03 
3.775800e-01 2.202332e+03 
3.788200e-01 2.195304e+03 
3.800300e-01 2.188501e+03 
3.812100e-01 2.181911e+03 
3.824200e-01 2.175201e+03 
3.836100e-01 2.168653e+03 
3.848600e-01 2.161830e+03 
3.860400e-01 2.155440e+03 
3.872400e-01 2.148992e+03 
3.884600e-01 2.142501e+03 
3.896500e-01 2.136224e+03 
3.908700e-01 2.129839e+03 
3.920600e-01 2.123659e+03 
3.933100e-01 2.117218e+03 
3.945300e-01 2.110982e+03 
3.957200e-01 2.104884e+03 
3.969300e-01 2.098713e+03 
3.981700e-01 2.092439e+03 
3.993500e-01 2.086513e+03 
4.094840e-01 2.037423e+03 
4.272360e-01 1.957321e+03 
4.454600e-01 1.881594e+03 
4.630560e-01 1.814143e+03 
4.804610e-01 1.751569e+03 
4.980690e-01 1.692882e+03 
5.159230e-01 1.636816e+03 
5.317440e-01 1.590322e+03 
5.489640e-01 1.542342e+03 
5.671990e-01 1.494435e+03 
5.838690e-01 1.453170e+03 
6.018840e-01 1.411007e+03 
6.202330e-01 1.369974e+03 
6.379250e-01 1.332792e+03 
6.545410e-01 1.299280e+03 
6.714560e-01 1.266732e+03 
6.892080e-01 1.233957e+03 
7.066010e-01 1.203391e+03 
7.240540e-01 1.173908e+03 
7.420450e-01 1.144514e+03 
7.593780e-01 1.117524e+03 
7.764720e-01 1.091665e+03 
7.942840e-01 1.065695e+03 
8.116170e-01 1.041444e+03 
8.288310e-01 1.018048e+03 
8.462240e-01 9.952606e+02 
8.631980e-01 9.736353e+02 
8.810700e-01 9.516225e+02 
8.989410e-01 9.303361e+02 
9.166330e-01 9.099842e+02 
9.345640e-01 8.898649e+02 
9.515980e-01 8.713601e+02 
9.688720e-01 8.531283e+02 
9.865640e-01 8.349731e+02 
1.031870e+00 7.909428e+02 
1.063490e+00 7.621390e+02 
1.097920e+00 7.322009e+02 
1.134370e+00 7.023451e+02 
1.167730e+00 6.765895e+02 
1.203830e+00 6.500095e+02 
1.240470e+00 6.246025e+02 
1.275790e+00 6.013086e+02 
1.309140e+00 5.804074e+02 
1.342970e+00 5.602348e+02 
1.378420e+00 5.401246e+02 
1.413200e+00 5.214056e+02 
1.448110e+00 5.035009e+02 
1.484090e+00 4.859296e+02 
1.518820e+00 4.697674e+02 
1.552880e+00 4.547021e+02 
1.588630e+00 4.395681e+02 
1.623230e+00 4.255661e+02 
1.657720e+00 4.122577e+02 
1.692450e+00 3.994536e+02 
1.726400e+00 3.874657e+02 
1.762200e+00 3.754259e+02 
1.797880e+00 3.638834e+02 
1.833270e+00 3.529728e+02 
1.869070e+00 3.423900e+02 
1.903200e+00 3.327074e+02 
1.937740e+00 3.232853e+02 
1.973190e+00 3.140157e+02 
2.007440e+00 3.054495e+02 
2.042160e+00 2.970910e+02 
2.077900e+00 2.888114e+02 
2.112390e+00 2.811199e+02 
2.146220e+00 2.738971e+02 
2.181600e+00 2.665669e+02 
2.216930e+00 2.595444e+02 
2.250760e+00 2.530957e+02 
2.286500e+00 2.465242e+02 
2.321770e+00 2.402456e+02 
2.355950e+00 2.344028e+02 
2.391280e+00 2.285640e+02 
2.426240e+00 2.229822e+02 
2.460670e+00 2.176816e+02 
2.495640e+00 2.124943e+02 
2.531080e+00 2.073725e+02 
2.566220e+00 2.024848e+02 
2.600830e+00 1.978464e+02 
2.635080e+00 1.934185e+02 
2.670340e+00 1.889652e+02 
2.705970e+00 1.846275e+02 
2.740040e+00 1.806186e+02 
2.774520e+00 1.766782e+02 
2.809730e+00 1.727942e+02 
2.844390e+00 1.690934e+02 
2.879960e+00 1.654051e+02 
2.914860e+00 1.618919e+02 
2.949410e+00 1.585158e+02 
2.984440e+00 1.551874e+02 
3.019760e+00 1.519410e+02 
3.054730e+00 1.488274e+02 
3.089030e+00 1.458546e+02 
3.124060e+00 1.429116e+02 
3.159560e+00 1.400231e+02 
3.194710e+00 1.372388e+02 
3.229010e+00 1.345960e+02 
3.263320e+00 1.320188e+02 
3.297930e+00 1.294938e+02 
3.332830e+00 1.270241e+02 
3.368040e+00 1.245970e+02 
3.403300e+00 1.222303e+02 
3.438450e+00 1.199417e+02 
3.473060e+00 1.177498e+02 
3.508440e+00 1.155624e+02 
3.543110e+00 1.134742e+02 
3.577470e+00 1.114537e+02 
3.613040e+00 1.094178e+02 
3.648120e+00 1.074669e+02 
3.682910e+00 1.055795e+02 
3.718050e+00 1.037179e+02 
3.753320e+00 1.018988e+02 
3.787980e+00 1.001592e+02 
3.822290e+00 9.847722e+01 
3.857020e+00 9.681316e+01 
3.891920e+00 9.518310e+01 
3.926650e+00 9.360338e+01 
3.961970e+00 9.203379e+01 
3.997360e+00 9.049587e+01 
4.031670e+00 8.904055e+01 
4.066330e+00 8.760877e+01 
4.101420e+00 8.619243e+01 
4.136200e+00 8.482559e+01 
4.170810e+00 8.349573e+01 
4.206250e+00 8.216206e+01 
4.241580e+00 8.086188e+01 
4.276300e+00 7.961038e+01 
4.310970e+00 7.838670e+01 
4.346120e+00 7.717481e+01 
4.380600e+00 7.601462e+01 
4.414730e+00 7.489037e+01 
4.450350e+00 7.374673e+01 
4.485320e+00 7.264774e+01 
4.519810e+00 7.158473e+01 
4.555430e+00 7.050898e+01 
4.590870e+00 6.946235e+01 
4.625480e+00 6.846381e+01 
4.659910e+00 6.749034e+01 
4.695230e+00 6.651558e+01 
4.729960e+00 6.557683e+01 
4.764450e+00 6.466213e+01 
4.799530e+00 6.374877e+01 
4.834910e+00 6.284577e+01 
4.869700e+00 6.197826e+01 
4.904370e+00 6.113082e+01 
4.939450e+00 6.028930e+01 
4.973940e+00 5.947643e+01 
5.008430e+00 5.867875e+01 
5.043810e+00 5.787805e+01 
5.078840e+00 5.710143e+01 
5.113500e+00 5.634724e+01 
5.148890e+00 5.559446e+01 
5.184210e+00 5.485721e+01 
5.219060e+00 5.414267e+01 
5.253660e+00 5.344494e+01 
5.288570e+00 5.275355e+01 
5.323420e+00 5.207707e+01 
5.358440e+00 5.141092e+01 
5.393590e+00 5.075413e+01 
5.428310e+00 5.011855e+01 
5.462800e+00 4.949901e+01 
5.497640e+00 4.888393e+01 
5.532670e+00 4.827517e+01 
5.567280e+00 4.768366e+01 
5.602000e+00 4.710030e+01 
5.637270e+00 4.651977e+01 
5.672410e+00 4.595164e+01 
5.707020e+00 4.540141e+01 
5.742040e+00 4.485594e+01 
5.777430e+00 4.431429e+01 
5.812210e+00 4.379075e+01 
5.846820e+00 4.327731e+01 
5.881610e+00 4.276931e+01 
5.916510e+00 4.226792e+01 
5.951600e+00 4.177138e+01 
5.986560e+00 4.128437e+01 
6.021830e+00 4.080090e+01 
6.056490e+00 4.033440e+01 
6.091160e+00 3.987596e+01 
6.125830e+00 3.942464e+01 
6.161090e+00 3.897338e+01 
6.195760e+00 3.853783e+01 
6.230420e+00 3.810906e+01 
6.265690e+00 3.767942e+01 
6.300950e+00 3.725594e+01 
6.335620e+00 3.684588e+01 
6.370880e+00 3.643514e+01 
6.405550e+00 3.603847e+01 
6.440220e+00 3.564814e+01 
6.475480e+00 3.525708e+01 
6.510150e+00 3.487807e+01 
6.544810e+00 3.450432e+01 
6.580080e+00 3.412957e+01 
6.614750e+00 3.376659e+01 
6.649410e+00 3.341029e+01 
6.684080e+00 3.305926e+01 
6.719340e+00 3.270739e+01 
6.754010e+00 3.236619e+01 
6.788680e+00 3.202940e+01 
6.823940e+00 3.169174e+01 
6.859800e+00 3.135328e+01 
6.894470e+00 3.103034e+01 
6.929140e+00 3.071176e+01 
6.963800e+00 3.039769e+01 
6.999070e+00 3.008261e+01 
7.033730e+00 2.977855e+01 
7.068400e+00 2.947855e+01 
7.103660e+00 2.917762e+01 
7.138330e+00 2.888564e+01 
7.173600e+00 2.859237e+01 
7.208260e+00 2.830808e+01 
7.243530e+00 2.802269e+01 
7.277600e+00 2.775131e+01 
7.312860e+00 2.747477e+01 
7.348120e+00 2.720192e+01 
7.382790e+00 2.693720e+01 
7.417460e+00 2.667569e+01 
7.452720e+00 2.641310e+01 
7.487390e+00 2.615828e+01 
7.522650e+00 2.590250e+01 
7.557320e+00 2.565406e+01 
7.591990e+00 2.540871e+01 
7.627250e+00 2.516241e+01 
7.662510e+00 2.491929e+01 
7.697180e+00 2.468309e+01 
7.731850e+00 2.444979e+01 
7.766510e+00 2.421950e+01 
7.801180e+00 2.399203e+01 
7.836440e+00 2.376428e+01 
7.871110e+00 2.354358e+01 
7.906380e+00 2.332185e+01 
7.941040e+00 2.310667e+01 
7.976310e+00 2.288971e+01 
8.011570e+00 2.267470e+01 
8.046240e+00 2.246589e+01 
8.080900e+00 2.225968e+01 
8.115570e+00 2.205613e+01 
8.150830e+00 2.185244e+01 
8.185500e+00 2.165459e+01 
8.220770e+00 2.145575e+01 
8.255430e+00 2.126269e+01 
8.290100e+00 2.107272e+01 
8.324770e+00 2.088510e+01 
8.359430e+00 2.069973e+01 
8.394700e+00 2.051334e+01 
8.429960e+00 2.032863e+01 
8.464630e+00 2.014856e+01 
8.499890e+00 1.996758e+01 
8.534560e+00 1.979171e+01 
8.569200e+00 1.961802e+01 
