# Parameters:
# omega_b = 0.022000, omega_m = 0.141300, n_s = 0.968100, h = 67.900000, w = -1.000000, sigma_8 = 0.815400
# z = 0.000000
#
# k[1/Mpc] # P(k):
8.694000e-04 1.535835e+04 
2.077466e-03 3.292489e+04 
3.285532e-03 4.670690e+04 
4.493598e-03 5.733600e+04 
5.701664e-03 6.526692e+04 
6.909730e-03 7.092579e+04 
8.117797e-03 7.479960e+04 
9.325863e-03 7.713920e+04 
1.053393e-02 7.819904e+04 
1.174199e-02 7.821654e+04 
1.295006e-02 7.734163e+04 
1.415813e-02 7.578064e+04 
1.536619e-02 7.370748e+04 
1.657426e-02 7.125474e+04 
1.778233e-02 6.857292e+04 
1.899039e-02 6.579449e+04 
2.019846e-02 6.291594e+04 
2.140652e-02 6.001535e+04 
2.261459e-02 5.717667e+04 
2.382266e-02 5.446833e+04 
2.503072e-02 5.192755e+04 
2.623879e-02 4.957049e+04 
2.744685e-02 4.740193e+04 
2.865492e-02 4.542683e+04 
2.986299e-02 4.363788e+04 
3.100100e-02 4.211994e+04 
3.220400e-02 4.067627e+04 
3.288100e-02 3.993327e+04 
3.424300e-02 3.857318e+04 
3.555100e-02 3.742168e+04 
3.686000e-02 3.638806e+04 
3.795000e-02 3.560673e+04 
3.929100e-02 3.472986e+04 
4.039800e-02 3.405542e+04 
4.164000e-02 3.333041e+04 
4.294400e-02 3.258765e+04 
4.415000e-02 3.191964e+04 
4.542900e-02 3.119595e+04 
4.660900e-02 3.052184e+04 
4.782300e-02 2.979892e+04 
4.892900e-02 2.912516e+04 
5.031200e-02 2.825630e+04 
5.155900e-02 2.744820e+04 
5.238100e-02 2.690681e+04 
5.378200e-02 2.597552e+04 
5.513400e-02 2.506469e+04 
5.627600e-02 2.429974e+04 
5.735300e-02 2.358945e+04 
5.870100e-02 2.271620e+04 
5.988700e-02 2.197440e+04 
6.113500e-02 2.122564e+04 
6.225900e-02 2.058214e+04 
6.340100e-02 1.996050e+04 
6.480200e-02 1.924811e+04 
6.601100e-02 1.868021e+04 
6.725500e-02 1.814064e+04 
6.829100e-02 1.773032e+04 
6.958600e-02 1.725627e+04 
7.071100e-02 1.688096e+04 
7.192300e-02 1.651096e+04 
7.307400e-02 1.619056e+04 
7.412300e-02 1.592229e+04 
7.550400e-02 1.560176e+04 
7.663100e-02 1.536046e+04 
7.791200e-02 1.510671e+04 
7.912700e-02 1.488256e+04 
8.027600e-02 1.467857e+04 
8.138400e-02 1.448759e+04 
8.272200e-02 1.426202e+04 
8.406100e-02 1.403802e+04 
8.534100e-02 1.382099e+04 
8.653800e-02 1.361195e+04 
8.759800e-02 1.342458e+04 
8.900300e-02 1.317106e+04 
9.009000e-02 1.296792e+04 
9.113300e-02 1.276874e+04 
9.239600e-02 1.252557e+04 
9.358000e-02 1.229257e+04 
9.496100e-02 1.201948e+04 
9.608400e-02 1.179839e+04 
9.727500e-02 1.156590e+04 
9.852600e-02 1.132280e+04 
9.973800e-02 1.109385e+04 
1.009000e-01 1.088032e+04 
1.020900e-01 1.066794e+04 
1.034000e-01 1.044404e+04 
1.046000e-01 1.024832e+04 
1.057200e-01 1.007586e+04 
1.069100e-01 9.900168e+03 
1.082500e-01 9.716865e+03 
1.093900e-01 9.569164e+03 
1.105400e-01 9.426222e+03 
1.116900e-01 9.294960e+03 
1.129600e-01 9.156342e+03 
1.142000e-01 9.030561e+03 
1.153300e-01 8.921107e+03 
1.166400e-01 8.801008e+03 
1.177800e-01 8.700142e+03 
1.190000e-01 8.595279e+03 
1.201200e-01 8.502622e+03 
1.213400e-01 8.404310e+03 
1.227100e-01 8.294628e+03 
1.238900e-01 8.201954e+03 
1.250700e-01 8.109477e+03 
1.263200e-01 8.012528e+03 
1.275500e-01 7.916522e+03 
1.287500e-01 7.823892e+03 
1.299900e-01 7.728582e+03 
1.311300e-01 7.641126e+03 
1.323500e-01 7.546899e+03 
1.335900e-01 7.452488e+03 
1.347100e-01 7.367985e+03 
1.359800e-01 7.273564e+03 
1.372100e-01 7.182821e+03 
1.384300e-01 7.094399e+03 
1.395700e-01 7.012587e+03 
1.407700e-01 6.928169e+03 
1.420300e-01 6.840716e+03 
1.432800e-01 6.755836e+03 
1.444500e-01 6.679175e+03 
1.456300e-01 6.603398e+03 
1.468900e-01 6.524308e+03 
1.480500e-01 6.453012e+03 
1.491700e-01 6.386058e+03 
1.503800e-01 6.315854e+03 
1.516400e-01 6.244539e+03 
1.528200e-01 6.180491e+03 
1.540200e-01 6.116592e+03 
1.551900e-01 6.056794e+03 
1.564300e-01 5.994938e+03 
1.576600e-01 5.935011e+03 
1.588700e-01 5.877474e+03 
1.600900e-01 5.820599e+03 
1.612700e-01 5.767714e+03 
1.625400e-01 5.711845e+03 
1.637600e-01 5.658982e+03 
1.649500e-01 5.608229e+03 
1.662200e-01 5.555045e+03 
1.674000e-01 5.506519e+03 
1.685000e-01 5.462032e+03 
1.697500e-01 5.412103e+03 
1.710300e-01 5.361672e+03 
1.722200e-01 5.315609e+03 
1.734400e-01 5.268503e+03 
1.746400e-01 5.222926e+03 
1.758700e-01 5.176760e+03 
1.770900e-01 5.131254e+03 
1.782700e-01 5.087966e+03 
1.794600e-01 5.044614e+03 
1.807000e-01 4.999913e+03 
1.819100e-01 4.957013e+03 
1.830100e-01 4.918657e+03 
1.842200e-01 4.877119e+03 
1.855000e-01 4.833916e+03 
1.867000e-01 4.794414e+03 
1.879200e-01 4.754887e+03 
1.890900e-01 4.717546e+03 
1.902800e-01 4.680037e+03 
1.915200e-01 4.641559e+03 
1.926900e-01 4.605929e+03 
1.939000e-01 4.570027e+03 
1.951700e-01 4.532931e+03 
1.963100e-01 4.500253e+03 
1.975100e-01 4.466679e+03 
1.987800e-01 4.431687e+03 
2.000100e-01 4.398350e+03 
2.012500e-01 4.365327e+03 
2.023400e-01 4.336708e+03 
2.036100e-01 4.303860e+03 
2.048900e-01 4.271352e+03 
2.060400e-01 4.242567e+03 
2.072200e-01 4.213448e+03 
2.084200e-01 4.184379e+03 
2.096900e-01 4.154058e+03 
2.109200e-01 4.125118e+03 
2.121100e-01 4.097388e+03 
2.132700e-01 4.070716e+03 
2.145200e-01 4.042369e+03 
2.157200e-01 4.015507e+03 
2.168800e-01 3.989872e+03 
2.180700e-01 3.963922e+03 
2.193400e-01 3.936593e+03 
2.206000e-01 3.909833e+03 
2.217500e-01 3.885735e+03 
2.229500e-01 3.860913e+03 
2.241400e-01 3.836677e+03 
2.253500e-01 3.812356e+03 
2.264900e-01 3.789733e+03 
2.277100e-01 3.766092e+03 
2.289900e-01 3.741914e+03 
2.301500e-01 3.720286e+03 
2.313600e-01 3.698011e+03 
2.325600e-01 3.676286e+03 
2.337700e-01 3.654657e+03 
2.350000e-01 3.632951e+03 
2.362000e-01 3.612282e+03 
2.374100e-01 3.591986e+03 
2.386500e-01 3.571450e+03 
2.399100e-01 3.550850e+03 
2.410400e-01 3.532613e+03 
2.422500e-01 3.513320e+03 
2.435000e-01 3.493636e+03 
2.447300e-01 3.474627e+03 
2.458700e-01 3.457689e+03 
2.470600e-01 3.440215e+03 
2.483300e-01 3.421795e+03 
2.495600e-01 3.404136e+03 
2.507600e-01 3.387060e+03 
2.519600e-01 3.370185e+03 
2.532200e-01 3.352680e+03 
2.543700e-01 3.336902e+03 
2.555500e-01 3.320904e+03 
2.568000e-01 3.304156e+03 
2.580100e-01 3.288135e+03 
2.592400e-01 3.272023e+03 
2.604100e-01 3.256865e+03 
2.616100e-01 3.241493e+03 
2.628400e-01 3.225918e+03 
2.640600e-01 3.210596e+03 
2.652200e-01 3.196169e+03 
2.664300e-01 3.181287e+03 
2.676500e-01 3.166452e+03 
2.688400e-01 3.151878e+03 
2.700700e-01 3.136817e+03 
2.712400e-01 3.122647e+03 
2.724800e-01 3.107794e+03 
2.736700e-01 3.093667e+03 
2.748800e-01 3.079426e+03 
2.761000e-01 3.065224e+03 
2.773200e-01 3.051176e+03 
2.785400e-01 3.037168e+03 
2.797000e-01 3.023750e+03 
2.808900e-01 3.010127e+03 
2.821400e-01 2.995971e+03 
2.833900e-01 2.981963e+03 
2.845500e-01 2.968960e+03 
2.857800e-01 2.955315e+03 
2.870300e-01 2.941596e+03 
2.882100e-01 2.928780e+03 
2.893900e-01 2.915916e+03 
2.906300e-01 2.902443e+03 
2.918900e-01 2.888897e+03 
2.930500e-01 2.876553e+03 
2.942500e-01 2.863916e+03 
2.954200e-01 2.851736e+03 
2.966500e-01 2.839060e+03 
2.978900e-01 2.826412e+03 
2.990400e-01 2.814798e+03 
3.002700e-01 2.802324e+03 
3.015100e-01 2.789792e+03 
3.026800e-01 2.778084e+03 
3.038500e-01 2.766486e+03 
3.050300e-01 2.754902e+03 
3.062600e-01 2.743009e+03 
3.075000e-01 2.731138e+03 
3.087000e-01 2.719762e+03 
3.099100e-01 2.708402e+03 
3.111200e-01 2.697113e+03 
3.123100e-01 2.686051e+03 
3.135300e-01 2.674819e+03 
3.147300e-01 2.663875e+03 
3.159900e-01 2.652495e+03 
3.171800e-01 2.641800e+03 
3.183700e-01 2.631172e+03 
3.196300e-01 2.620025e+03 
3.208400e-01 2.609422e+03 
3.220300e-01 2.599091e+03 
3.232000e-01 2.589054e+03 
3.244300e-01 2.578610e+03 
3.256700e-01 2.568180e+03 
3.269200e-01 2.557765e+03 
3.280800e-01 2.548187e+03 
3.292500e-01 2.538628e+03 
3.304800e-01 2.528673e+03 
3.317100e-01 2.518810e+03 
3.328900e-01 2.509433e+03 
3.340700e-01 2.500137e+03 
3.353600e-01 2.490093e+03 
3.365300e-01 2.481074e+03 
3.377100e-01 2.472057e+03 
3.389200e-01 2.462891e+03 
3.401600e-01 2.453582e+03 
3.413700e-01 2.444589e+03 
3.425300e-01 2.436050e+03 
3.437700e-01 2.427000e+03 
3.449800e-01 2.418247e+03 
3.461800e-01 2.409642e+03 
3.473600e-01 2.401259e+03 
3.485800e-01 2.392683e+03 
3.498100e-01 2.384113e+03 
3.510200e-01 2.375754e+03 
3.522000e-01 2.367672e+03 
3.533900e-01 2.359590e+03 
3.546400e-01 2.351270e+03 
3.558400e-01 2.343356e+03 
3.570600e-01 2.335380e+03 
3.582700e-01 2.327535e+03 
3.595000e-01 2.319629e+03 
3.607100e-01 2.311875e+03 
3.618900e-01 2.304343e+03 
3.631200e-01 2.296557e+03 
3.643200e-01 2.289024e+03 
3.655500e-01 2.281367e+03 
3.667300e-01 2.274081e+03 
3.679500e-01 2.266604e+03 
3.691900e-01 2.259068e+03 
3.703600e-01 2.252015e+03 
3.715700e-01 2.244780e+03 
3.727700e-01 2.237662e+03 
3.739900e-01 2.230496e+03 
3.752000e-01 2.223465e+03 
3.763900e-01 2.216606e+03 
3.775800e-01 2.209801e+03 
3.788200e-01 2.202767e+03 
3.800300e-01 2.195959e+03 
3.812100e-01 2.189364e+03 
3.824200e-01 2.182648e+03 
3.836100e-01 2.176095e+03 
3.848600e-01 2.169267e+03 
3.860400e-01 2.162872e+03 
3.872400e-01 2.156419e+03 
3.884600e-01 2.149923e+03 
3.896500e-01 2.143641e+03 
3.908700e-01 2.137251e+03 
3.920600e-01 2.131066e+03 
3.933100e-01 2.124620e+03 
3.945300e-01 2.118378e+03 
3.957200e-01 2.112275e+03 
3.969300e-01 2.106099e+03 
3.981700e-01 2.099819e+03 
3.993500e-01 2.093888e+03 
4.094840e-01 2.044756e+03 
4.272360e-01 1.964580e+03 
4.454600e-01 1.888780e+03 
4.630560e-01 1.821259e+03 
4.804610e-01 1.758615e+03 
4.980690e-01 1.699860e+03 
5.159230e-01 1.643724e+03 
5.317440e-01 1.597171e+03 
5.489640e-01 1.549126e+03 
5.671990e-01 1.501149e+03 
5.838690e-01 1.459820e+03 
6.018840e-01 1.417589e+03 
6.202330e-01 1.376482e+03 
6.379250e-01 1.339231e+03 
6.545410e-01 1.305651e+03 
6.714560e-01 1.273033e+03 
6.892080e-01 1.240182e+03 
7.066010e-01 1.209541e+03 
7.240540e-01 1.179982e+03 
7.420450e-01 1.150505e+03 
7.593780e-01 1.123437e+03 
7.764720e-01 1.097499e+03 
7.942840e-01 1.071445e+03 
8.116170e-01 1.047113e+03 
8.288310e-01 1.023635e+03 
8.462240e-01 1.000764e+03 
8.631980e-01 9.790578e+02 
8.810700e-01 9.569595e+02 
8.989410e-01 9.355882e+02 
9.166330e-01 9.151532e+02 
9.345640e-01 8.949491e+02 
9.515980e-01 8.763646e+02 
9.688720e-01 8.580530e+02 
9.865640e-01 8.398163e+02 
1.031870e+00 7.955831e+02 
1.063490e+00 7.666420e+02 
1.097920e+00 7.365575e+02 
1.134370e+00 7.065530e+02 
1.167730e+00 6.806668e+02 
1.203830e+00 6.539494e+02 
1.240470e+00 6.284095e+02 
1.275790e+00 6.049920e+02 
1.309140e+00 5.839787e+02 
1.342970e+00 5.636967e+02 
1.378420e+00 5.434767e+02 
1.413200e+00 5.246548e+02 
1.448110e+00 5.066508e+02 
1.484090e+00 4.889815e+02 
1.518820e+00 4.727286e+02 
1.552880e+00 4.575785e+02 
1.588630e+00 4.423585e+02 
1.623230e+00 4.282768e+02 
1.657720e+00 4.148923e+02 
1.692450e+00 4.020146e+02 
1.726400e+00 3.899576e+02 
1.762200e+00 3.778480e+02 
1.797880e+00 3.662384e+02 
1.833270e+00 3.552643e+02 
1.869070e+00 3.446197e+02 
1.903200e+00 3.348803e+02 
1.937740e+00 3.254027e+02 
1.973190e+00 3.160784e+02 
2.007440e+00 3.074616e+02 
2.042160e+00 2.990535e+02 
2.077900e+00 2.907247e+02 
2.112390e+00 2.829874e+02 
2.146220e+00 2.757214e+02 
2.181600e+00 2.683473e+02 
2.216930e+00 2.612827e+02 
2.250760e+00 2.547953e+02 
2.286500e+00 2.481841e+02 
2.321770e+00 2.418675e+02 
2.355950e+00 2.359894e+02 
2.391280e+00 2.301153e+02 
2.426240e+00 2.244995e+02 
2.460670e+00 2.191666e+02 
2.495640e+00 2.139477e+02 
2.531080e+00 2.087946e+02 
2.566220e+00 2.038769e+02 
2.600830e+00 1.992101e+02 
2.635080e+00 1.947549e+02 
2.670340e+00 1.902742e+02 
2.705970e+00 1.859097e+02 
2.740040e+00 1.818761e+02 
2.774520e+00 1.779113e+02 
2.809730e+00 1.740032e+02 
2.844390e+00 1.702794e+02 
2.879960e+00 1.665681e+02 
2.914860e+00 1.630331e+02 
2.949410e+00 1.596359e+02 
2.984440e+00 1.562866e+02 
3.019760e+00 1.530199e+02 
3.054730e+00 1.498868e+02 
3.089030e+00 1.468953e+02 
3.124060e+00 1.439337e+02 
3.159560e+00 1.410270e+02 
3.194710e+00 1.382250e+02 
3.229010e+00 1.355655e+02 
3.263320e+00 1.329720e+02 
3.297930e+00 1.304310e+02 
3.332830e+00 1.279455e+02 
3.368040e+00 1.255030e+02 
3.403300e+00 1.231211e+02 
3.438450e+00 1.208179e+02 
3.473060e+00 1.186120e+02 
3.508440e+00 1.164105e+02 
3.543110e+00 1.143090e+02 
3.577470e+00 1.122755e+02 
3.613040e+00 1.102264e+02 
3.648120e+00 1.082629e+02 
3.682910e+00 1.063633e+02 
3.718050e+00 1.044896e+02 
3.753320e+00 1.026588e+02 
3.787980e+00 1.009079e+02 
3.822290e+00 9.921490e+01 
3.857020e+00 9.753998e+01 
3.891920e+00 9.589927e+01 
3.926650e+00 9.430922e+01 
3.961970e+00 9.272934e+01 
3.997360e+00 9.118131e+01 
4.031670e+00 8.971642e+01 
4.066330e+00 8.827519e+01 
4.101420e+00 8.684950e+01 
4.136200e+00 8.547363e+01 
4.170810e+00 8.413499e+01 
4.206250e+00 8.279247e+01 
4.241580e+00 8.148364e+01 
4.276300e+00 8.022380e+01 
4.310970e+00 7.899194e+01 
4.346120e+00 7.777194e+01 
4.380600e+00 7.660398e+01 
4.414730e+00 7.547220e+01 
4.450350e+00 7.432087e+01 
4.485320e+00 7.321449e+01 
4.519810e+00 7.214430e+01 
4.555430e+00 7.106127e+01 
4.590870e+00 7.000754e+01 
4.625480e+00 6.900223e+01 
4.659910e+00 6.802215e+01 
4.695230e+00 6.704074e+01 
4.729960e+00 6.609560e+01 
4.764450e+00 6.517464e+01 
4.799530e+00 6.425503e+01 
4.834910e+00 6.334584e+01 
4.869700e+00 6.247236e+01 
4.904370e+00 6.161908e+01 
4.939450e+00 6.077174e+01 
4.973940e+00 5.995324e+01 
5.008430e+00 5.915004e+01 
5.043810e+00 5.834376e+01 
5.078840e+00 5.756174e+01 
5.113500e+00 5.680228e+01 
5.148890e+00 5.604424e+01 
5.184210e+00 5.530183e+01 
5.219060e+00 5.458229e+01 
5.253660e+00 5.387964e+01 
5.288570e+00 5.318338e+01 
5.323420e+00 5.250212e+01 
5.358440e+00 5.183125e+01 
5.393590e+00 5.116980e+01 
5.428310e+00 5.052970e+01 
5.462800e+00 4.990575e+01 
5.497640e+00 4.928629e+01 
5.532670e+00 4.867317e+01 
5.567280e+00 4.807741e+01 
5.602000e+00 4.748985e+01 
5.637270e+00 4.690513e+01 
5.672410e+00 4.633290e+01 
5.707020e+00 4.577870e+01 
5.742040e+00 4.522927e+01 
5.777430e+00 4.468368e+01 
5.812210e+00 4.415634e+01 
5.846820e+00 4.363915e+01 
5.881610e+00 4.312743e+01 
5.916510e+00 4.262236e+01 
5.951600e+00 4.212216e+01 
5.986560e+00 4.163155e+01 
6.021830e+00 4.114452e+01 
6.056490e+00 4.067457e+01 
6.091160e+00 4.021271e+01 
6.125830e+00 3.975804e+01 
6.161090e+00 3.930343e+01 
6.195760e+00 3.886462e+01 
6.230420e+00 3.843265e+01 
6.265690e+00 3.799978e+01 
6.300950e+00 3.757312e+01 
6.335620e+00 3.715996e+01 
6.370880e+00 3.674613e+01 
6.405550e+00 3.634645e+01 
6.440220e+00 3.595315e+01 
6.475480e+00 3.555911e+01 
6.510150e+00 3.517722e+01 
6.544810e+00 3.480061e+01 
6.580080e+00 3.442299e+01 
6.614750e+00 3.405722e+01 
6.649410e+00 3.369818e+01 
6.684080e+00 3.334444e+01 
6.719340e+00 3.298986e+01 
6.754010e+00 3.264602e+01 
6.788680e+00 3.230660e+01 
6.823940e+00 3.196632e+01 
6.859800e+00 3.162521e+01 
6.894470e+00 3.129974e+01 
6.929140e+00 3.097867e+01 
6.963800e+00 3.066212e+01 
6.999070e+00 3.034457e+01 
7.033730e+00 3.003810e+01 
7.068400e+00 2.973573e+01 
7.103660e+00 2.943242e+01 
7.138330e+00 2.913812e+01 
7.173600e+00 2.884251e+01 
7.208260e+00 2.855596e+01 
7.243530e+00 2.826828e+01 
7.277600e+00 2.799473e+01 
7.312860e+00 2.771596e+01 
7.348120e+00 2.744093e+01 
7.382790e+00 2.717407e+01 
7.417460e+00 2.691045e+01 
7.452720e+00 2.664573e+01 
7.487390e+00 2.638884e+01 
7.522650e+00 2.613099e+01 
7.557320e+00 2.588051e+01 
7.591990e+00 2.563316e+01 
7.627250e+00 2.538484e+01 
7.662510e+00 2.513973e+01 
7.697180e+00 2.490159e+01 
7.731850e+00 2.466637e+01 
7.766510e+00 2.443417e+01 
7.801180e+00 2.420482e+01 
7.836440e+00 2.397519e+01 
7.871110e+00 2.375265e+01 
7.906380e+00 2.352908e+01 
7.941040e+00 2.331211e+01 
7.976310e+00 2.309334e+01 
8.011570e+00 2.287652e+01 
8.046240e+00 2.266596e+01 
8.080900e+00 2.245802e+01 
8.115570e+00 2.225276e+01 
8.150830e+00 2.204735e+01 
8.185500e+00 2.184783e+01 
8.220770e+00 2.164730e+01 
8.255430e+00 2.145262e+01 
8.290100e+00 2.126103e+01 
8.324770e+00 2.107180e+01 
8.359430e+00 2.088486e+01 
8.394700e+00 2.069688e+01 
8.429960e+00 2.051059e+01 
8.464630e+00 2.032897e+01 
8.499890e+00 2.014643e+01 
8.534560e+00 1.996905e+01 
8.569200e+00 1.979387e+01 
