# Parameters:
# omega_b = 0.022500, omega_m = 0.141300, n_s = 0.968100, h = 67.900000, w = -1.000000, sigma_8 = 0.815400
# z = 0.000000
#
# k[1/Mpc] # P(k):
8.694000e-04 1.554249e+04 
2.077466e-03 3.333695e+04 
3.285532e-03 4.729564e+04 
4.493598e-03 5.806366e+04 
5.701664e-03 6.608739e+04 
6.909730e-03 7.180386e+04 
8.117797e-03 7.571192e+04 
9.325863e-03 7.806657e+04 
1.053393e-02 7.912410e+04 
1.174199e-02 7.912239e+04 
1.295006e-02 7.821351e+04 
1.415813e-02 7.660728e+04 
1.536619e-02 7.447953e+04 
1.657426e-02 7.195375e+04 
1.778233e-02 6.914067e+04 
1.899039e-02 6.619525e+04 
2.019846e-02 6.320377e+04 
2.140652e-02 6.025017e+04 
2.261459e-02 5.738055e+04 
2.382266e-02 5.464749e+04 
2.503072e-02 5.208570e+04 
2.623879e-02 4.971102e+04 
2.744685e-02 4.752810e+04 
2.865492e-02 4.554141e+04 
2.986299e-02 4.374322e+04 
3.100100e-02 4.221851e+04 
3.220400e-02 4.076926e+04 
3.288100e-02 4.002375e+04 
3.424300e-02 3.865950e+04 
3.555100e-02 3.750477e+04 
3.686000e-02 3.646832e+04 
3.795000e-02 3.568474e+04 
3.929100e-02 3.480496e+04 
4.039800e-02 3.412786e+04 
4.164000e-02 3.339959e+04 
4.294400e-02 3.265280e+04 
4.415000e-02 3.198077e+04 
4.542900e-02 3.125231e+04 
4.660900e-02 3.057360e+04 
4.782300e-02 2.984561e+04 
4.892900e-02 2.916723e+04 
5.031200e-02 2.829260e+04 
5.155900e-02 2.747946e+04 
5.238100e-02 2.693490e+04 
5.378200e-02 2.599854e+04 
5.513400e-02 2.508333e+04 
5.627600e-02 2.431513e+04 
5.735300e-02 2.360216e+04 
5.870100e-02 2.272610e+04 
5.988700e-02 2.198228e+04 
6.113500e-02 2.123186e+04 
6.225900e-02 2.058725e+04 
6.340100e-02 1.996481e+04 
6.480200e-02 1.925177e+04 
6.601100e-02 1.868363e+04 
6.725500e-02 1.814404e+04 
6.829100e-02 1.773387e+04 
6.958600e-02 1.726010e+04 
7.071100e-02 1.688513e+04 
7.192300e-02 1.651554e+04 
7.307400e-02 1.619554e+04 
7.412300e-02 1.592764e+04 
7.550400e-02 1.560755e+04 
7.663100e-02 1.536656e+04 
7.791200e-02 1.511307e+04 
7.912700e-02 1.488903e+04 
8.027600e-02 1.468504e+04 
8.138400e-02 1.449395e+04 
8.272200e-02 1.426808e+04 
8.406100e-02 1.404360e+04 
8.534100e-02 1.382590e+04 
8.653800e-02 1.361607e+04 
8.759800e-02 1.342791e+04 
8.900300e-02 1.317322e+04 
9.009000e-02 1.296909e+04 
9.113300e-02 1.276890e+04 
9.239600e-02 1.252451e+04 
9.358000e-02 1.229037e+04 
9.496100e-02 1.201601e+04 
9.608400e-02 1.179396e+04 
9.727500e-02 1.156054e+04 
9.852600e-02 1.131665e+04 
9.973800e-02 1.108706e+04 
1.009000e-01 1.087303e+04 
1.020900e-01 1.066037e+04 
1.034000e-01 1.043627e+04 
1.046000e-01 1.024050e+04 
1.057200e-01 1.006815e+04 
1.069100e-01 9.892642e+03 
1.082500e-01 9.709681e+03 
1.093900e-01 9.562333e+03 
1.105400e-01 9.419778e+03 
1.116900e-01 9.288948e+03 
1.129600e-01 9.150806e+03 
1.142000e-01 9.025482e+03 
1.153300e-01 8.916417e+03 
1.166400e-01 8.796731e+03 
1.177800e-01 8.696159e+03 
1.190000e-01 8.591576e+03 
1.201200e-01 8.499070e+03 
1.213400e-01 8.400902e+03 
1.227100e-01 8.291217e+03 
1.238900e-01 8.198508e+03 
1.250700e-01 8.105892e+03 
1.263200e-01 8.008762e+03 
1.275500e-01 7.912504e+03 
1.287500e-01 7.819602e+03 
1.299900e-01 7.723971e+03 
1.311300e-01 7.636217e+03 
1.323500e-01 7.541662e+03 
1.335900e-01 7.446934e+03 
1.347100e-01 7.362162e+03 
1.359800e-01 7.267463e+03 
1.372100e-01 7.176495e+03 
1.384300e-01 7.087878e+03 
1.395700e-01 7.005943e+03 
1.407700e-01 6.921405e+03 
1.420300e-01 6.833913e+03 
1.432800e-01 6.748995e+03 
1.444500e-01 6.672374e+03 
1.456300e-01 6.596637e+03 
1.468900e-01 6.517634e+03 
1.480500e-01 6.446429e+03 
1.491700e-01 6.379576e+03 
1.503800e-01 6.309495e+03 
1.516400e-01 6.238307e+03 
1.528200e-01 6.174381e+03 
1.540200e-01 6.110603e+03 
1.551900e-01 6.050910e+03 
1.564300e-01 5.989160e+03 
1.576600e-01 5.929327e+03 
1.588700e-01 5.871864e+03 
1.600900e-01 5.815062e+03 
1.612700e-01 5.762215e+03 
1.625400e-01 5.706384e+03 
1.637600e-01 5.653539e+03 
1.649500e-01 5.602790e+03 
1.662200e-01 5.549607e+03 
1.674000e-01 5.501058e+03 
1.685000e-01 5.456549e+03 
1.697500e-01 5.406587e+03 
1.710300e-01 5.356111e+03 
1.722200e-01 5.310008e+03 
1.734400e-01 5.262852e+03 
1.746400e-01 5.217227e+03 
1.758700e-01 5.171012e+03 
1.770900e-01 5.125459e+03 
1.782700e-01 5.082125e+03 
1.794600e-01 5.038734e+03 
1.807000e-01 4.993996e+03 
1.819100e-01 4.951061e+03 
1.830100e-01 4.912685e+03 
1.842200e-01 4.871128e+03 
1.855000e-01 4.827905e+03 
1.867000e-01 4.788401e+03 
1.879200e-01 4.748872e+03 
1.890900e-01 4.711532e+03 
1.902800e-01 4.674040e+03 
1.915200e-01 4.635578e+03 
1.926900e-01 4.599967e+03 
1.939000e-01 4.564095e+03 
1.951700e-01 4.527029e+03 
1.963100e-01 4.494382e+03 
1.975100e-01 4.460846e+03 
1.987800e-01 4.425893e+03 
2.000100e-01 4.392595e+03 
2.012500e-01 4.359614e+03 
2.023400e-01 4.331032e+03 
2.036100e-01 4.298226e+03 
2.048900e-01 4.265761e+03 
2.060400e-01 4.237014e+03 
2.072200e-01 4.207934e+03 
2.084200e-01 4.178901e+03 
2.096900e-01 4.148618e+03 
2.109200e-01 4.119714e+03 
2.121100e-01 4.092018e+03 
2.132700e-01 4.065378e+03 
2.145200e-01 4.037065e+03 
2.157200e-01 4.010236e+03 
2.168800e-01 3.984635e+03 
2.180700e-01 3.958719e+03 
2.193400e-01 3.931429e+03 
2.206000e-01 3.904714e+03 
2.217500e-01 3.880657e+03 
2.229500e-01 3.855877e+03 
2.241400e-01 3.831699e+03 
2.253500e-01 3.807437e+03 
2.264900e-01 3.784870e+03 
2.277100e-01 3.761301e+03 
2.289900e-01 3.737212e+03 
2.301500e-01 3.715665e+03 
2.313600e-01 3.693473e+03 
2.325600e-01 3.671864e+03 
2.337700e-01 3.650351e+03 
2.350000e-01 3.628761e+03 
2.362000e-01 3.608220e+03 
2.374100e-01 3.588072e+03 
2.386500e-01 3.567685e+03 
2.399100e-01 3.547236e+03 
2.410400e-01 3.529159e+03 
2.422500e-01 3.510037e+03 
2.435000e-01 3.490530e+03 
2.447300e-01 3.471695e+03 
2.458700e-01 3.454934e+03 
2.470600e-01 3.437642e+03 
2.483300e-01 3.419414e+03 
2.495600e-01 3.401941e+03 
2.507600e-01 3.385048e+03 
2.519600e-01 3.368354e+03 
2.532200e-01 3.351037e+03 
2.543700e-01 3.335424e+03 
2.555500e-01 3.319588e+03 
2.568000e-01 3.303010e+03 
2.580100e-01 3.287153e+03 
2.592400e-01 3.271190e+03 
2.604100e-01 3.256165e+03 
2.616100e-01 3.240929e+03 
2.628400e-01 3.225491e+03 
2.640600e-01 3.210283e+03 
2.652200e-01 3.195956e+03 
2.664300e-01 3.181177e+03 
2.676500e-01 3.166443e+03 
2.688400e-01 3.151951e+03 
2.700700e-01 3.136961e+03 
2.712400e-01 3.122859e+03 
2.724800e-01 3.108077e+03 
2.736700e-01 3.094004e+03 
2.748800e-01 3.079805e+03 
2.761000e-01 3.065645e+03 
2.773200e-01 3.051639e+03 
2.785400e-01 3.037665e+03 
2.797000e-01 3.024268e+03 
2.808900e-01 3.010665e+03 
2.821400e-01 2.996530e+03 
2.833900e-01 2.982542e+03 
2.845500e-01 2.969545e+03 
2.857800e-01 2.955907e+03 
2.870300e-01 2.942195e+03 
2.882100e-01 2.929385e+03 
2.893900e-01 2.916523e+03 
2.906300e-01 2.903047e+03 
2.918900e-01 2.889499e+03 
2.930500e-01 2.877153e+03 
2.942500e-01 2.864513e+03 
2.954200e-01 2.852327e+03 
2.966500e-01 2.839645e+03 
2.978900e-01 2.826990e+03 
2.990400e-01 2.815370e+03 
3.002700e-01 2.802888e+03 
3.015100e-01 2.790348e+03 
3.026800e-01 2.778631e+03 
3.038500e-01 2.767026e+03 
3.050300e-01 2.755433e+03 
3.062600e-01 2.743531e+03 
3.075000e-01 2.731651e+03 
3.087000e-01 2.720266e+03 
3.099100e-01 2.708897e+03 
3.111200e-01 2.697599e+03 
3.123100e-01 2.686529e+03 
3.135300e-01 2.675287e+03 
3.147300e-01 2.664335e+03 
3.159900e-01 2.652946e+03 
3.171800e-01 2.642242e+03 
3.183700e-01 2.631606e+03 
3.196300e-01 2.620450e+03 
3.208400e-01 2.609839e+03 
3.220300e-01 2.599499e+03 
3.232000e-01 2.589454e+03 
3.244300e-01 2.579002e+03 
3.256700e-01 2.568564e+03 
3.269200e-01 2.558141e+03 
3.280800e-01 2.548556e+03 
3.292500e-01 2.538989e+03 
3.304800e-01 2.529027e+03 
3.317100e-01 2.519156e+03 
3.328900e-01 2.509772e+03 
3.340700e-01 2.500469e+03 
3.353600e-01 2.490417e+03 
3.365300e-01 2.481391e+03 
3.377100e-01 2.472367e+03 
3.389200e-01 2.463195e+03 
3.401600e-01 2.453879e+03 
3.413700e-01 2.444879e+03 
3.425300e-01 2.436333e+03 
3.437700e-01 2.427277e+03 
3.449800e-01 2.418518e+03 
3.461800e-01 2.409906e+03 
3.473600e-01 2.401517e+03 
3.485800e-01 2.392935e+03 
3.498100e-01 2.384358e+03 
3.510200e-01 2.375994e+03 
3.522000e-01 2.367906e+03 
3.533900e-01 2.359818e+03 
3.546400e-01 2.351492e+03 
3.558400e-01 2.343573e+03 
3.570600e-01 2.335590e+03 
3.582700e-01 2.327740e+03 
3.595000e-01 2.319828e+03 
3.607100e-01 2.312068e+03 
3.618900e-01 2.304531e+03 
3.631200e-01 2.296739e+03 
3.643200e-01 2.289201e+03 
3.655500e-01 2.281538e+03 
3.667300e-01 2.274248e+03 
3.679500e-01 2.266766e+03 
3.691900e-01 2.259224e+03 
3.703600e-01 2.252166e+03 
3.715700e-01 2.244926e+03 
3.727700e-01 2.237803e+03 
3.739900e-01 2.230631e+03 
3.752000e-01 2.223596e+03 
3.763900e-01 2.216732e+03 
3.775800e-01 2.209922e+03 
3.788200e-01 2.202883e+03 
3.800300e-01 2.196071e+03 
3.812100e-01 2.189471e+03 
3.824200e-01 2.182750e+03 
3.836100e-01 2.176193e+03 
3.848600e-01 2.169359e+03 
3.860400e-01 2.162960e+03 
3.872400e-01 2.156502e+03 
3.884600e-01 2.150002e+03 
3.896500e-01 2.143715e+03 
3.908700e-01 2.137320e+03 
3.920600e-01 2.131131e+03 
3.933100e-01 2.124680e+03 
3.945300e-01 2.118435e+03 
3.957200e-01 2.112327e+03 
3.969300e-01 2.106147e+03 
3.981700e-01 2.099862e+03 
3.993500e-01 2.093927e+03 
4.094840e-01 2.044760e+03 
4.272360e-01 1.964527e+03 
4.454600e-01 1.888672e+03 
4.630560e-01 1.821104e+03 
4.804610e-01 1.758415e+03 
4.980690e-01 1.699619e+03 
5.159230e-01 1.643443e+03 
5.317440e-01 1.596857e+03 
5.489640e-01 1.548779e+03 
5.671990e-01 1.500769e+03 
5.838690e-01 1.459412e+03 
6.018840e-01 1.417151e+03 
6.202330e-01 1.376018e+03 
6.379250e-01 1.338743e+03 
6.545410e-01 1.305143e+03 
6.714560e-01 1.272506e+03 
6.892080e-01 1.239636e+03 
7.066010e-01 1.208980e+03 
7.240540e-01 1.179406e+03 
7.420450e-01 1.149916e+03 
7.593780e-01 1.122837e+03 
7.764720e-01 1.096889e+03 
7.942840e-01 1.070827e+03 
8.116170e-01 1.046487e+03 
8.288310e-01 1.023003e+03 
8.462240e-01 1.000128e+03 
8.631980e-01 9.784175e+02 
8.810700e-01 9.563163e+02 
8.989410e-01 9.349429e+02 
9.166330e-01 9.145064e+02 
9.345640e-01 8.943019e+02 
9.515980e-01 8.757176e+02 
9.688720e-01 8.574067e+02 
9.865640e-01 8.391713e+02 
1.031870e+00 7.949435e+02 
1.063490e+00 7.660078e+02 
1.097920e+00 7.359305e+02 
1.134370e+00 7.059343e+02 
1.167730e+00 6.800564e+02 
1.203830e+00 6.533488e+02 
1.240470e+00 6.278191e+02 
1.275790e+00 6.044118e+02 
1.309140e+00 5.834084e+02 
1.342970e+00 5.631366e+02 
1.378420e+00 5.429272e+02 
1.413200e+00 5.241156e+02 
1.448110e+00 5.061220e+02 
1.484090e+00 4.884634e+02 
1.518820e+00 4.722205e+02 
1.552880e+00 4.570801e+02 
1.588630e+00 4.418704e+02 
1.623230e+00 4.277982e+02 
1.657720e+00 4.144231e+02 
1.692450e+00 4.015547e+02 
1.726400e+00 3.895066e+02 
1.762200e+00 3.774062e+02 
1.797880e+00 3.658055e+02 
1.833270e+00 3.548400e+02 
1.869070e+00 3.442038e+02 
1.903200e+00 3.344724e+02 
1.937740e+00 3.250027e+02 
1.973190e+00 3.156862e+02 
2.007440e+00 3.070767e+02 
2.042160e+00 2.986760e+02 
2.077900e+00 2.903545e+02 
2.112390e+00 2.826240e+02 
2.146220e+00 2.753646e+02 
2.181600e+00 2.679972e+02 
2.216930e+00 2.609392e+02 
2.250760e+00 2.544578e+02 
2.286500e+00 2.478529e+02 
2.321770e+00 2.415423e+02 
2.355950e+00 2.356698e+02 
2.391280e+00 2.298014e+02 
2.426240e+00 2.241912e+02 
2.460670e+00 2.188636e+02 
2.495640e+00 2.136499e+02 
2.531080e+00 2.085021e+02 
2.566220e+00 2.035894e+02 
2.600830e+00 1.989274e+02 
2.635080e+00 1.944768e+02 
2.670340e+00 1.900009e+02 
2.705970e+00 1.856410e+02 
2.740040e+00 1.816116e+02 
2.774520e+00 1.776511e+02 
2.809730e+00 1.737472e+02 
2.844390e+00 1.700275e+02 
2.879960e+00 1.663203e+02 
2.914860e+00 1.627891e+02 
2.949410e+00 1.593957e+02 
2.984440e+00 1.560502e+02 
3.019760e+00 1.527872e+02 
3.054730e+00 1.496576e+02 
3.089030e+00 1.466695e+02 
3.124060e+00 1.437113e+02 
3.159560e+00 1.408080e+02 
3.194710e+00 1.380093e+02 
3.229010e+00 1.353529e+02 
3.263320e+00 1.327624e+02 
3.297930e+00 1.302244e+02 
3.332830e+00 1.277419e+02 
3.368040e+00 1.253023e+02 
3.403300e+00 1.229233e+02 
3.438450e+00 1.206229e+02 
3.473060e+00 1.184197e+02 
3.508440e+00 1.162209e+02 
3.543110e+00 1.141219e+02 
3.577470e+00 1.120909e+02 
3.613040e+00 1.100444e+02 
3.648120e+00 1.080834e+02 
3.682910e+00 1.061861e+02 
3.718050e+00 1.043148e+02 
3.753320e+00 1.024863e+02 
3.787980e+00 1.007376e+02 
3.822290e+00 9.904681e+01 
3.857020e+00 9.737405e+01 
3.891920e+00 9.573546e+01 
3.926650e+00 9.414746e+01 
3.961970e+00 9.256964e+01 
3.997360e+00 9.102364e+01 
4.031670e+00 8.956067e+01 
4.066330e+00 8.812135e+01 
4.101420e+00 8.669754e+01 
4.136200e+00 8.532351e+01 
4.170810e+00 8.398664e+01 
4.206250e+00 8.264592e+01 
4.241580e+00 8.133886e+01 
4.276300e+00 8.008073e+01 
4.310970e+00 7.885055e+01 
4.346120e+00 7.763222e+01 
4.380600e+00 7.646586e+01 
4.414730e+00 7.533563e+01 
4.450350e+00 7.418590e+01 
4.485320e+00 7.308105e+01 
4.519810e+00 7.201236e+01 
4.555430e+00 7.093085e+01 
4.590870e+00 6.987860e+01 
4.625480e+00 6.887471e+01 
4.659910e+00 6.789601e+01 
4.695230e+00 6.691601e+01 
4.729960e+00 6.597221e+01 
4.764450e+00 6.505257e+01 
4.799530e+00 6.413429e+01 
4.834910e+00 6.322641e+01 
4.869700e+00 6.235420e+01 
4.904370e+00 6.150216e+01 
4.939450e+00 6.065607e+01 
4.973940e+00 5.983877e+01 
5.008430e+00 5.903675e+01 
5.043810e+00 5.823167e+01 
5.078840e+00 5.745081e+01 
5.113500e+00 5.669249e+01 
5.148890e+00 5.593559e+01 
5.184210e+00 5.519429e+01 
5.219060e+00 5.447583e+01 
5.253660e+00 5.377426e+01 
5.288570e+00 5.307905e+01 
5.323420e+00 5.239883e+01 
5.358440e+00 5.172899e+01 
5.393590e+00 5.106856e+01 
5.428310e+00 5.042945e+01 
5.462800e+00 4.980647e+01 
5.497640e+00 4.918797e+01 
5.532670e+00 4.857581e+01 
5.567280e+00 4.798099e+01 
5.602000e+00 4.739436e+01 
5.637270e+00 4.681057e+01 
5.672410e+00 4.623924e+01 
5.707020e+00 4.568593e+01 
5.742040e+00 4.513737e+01 
5.777430e+00 4.459267e+01 
5.812210e+00 4.406617e+01 
5.846820e+00 4.354982e+01 
5.881610e+00 4.303893e+01 
5.916510e+00 4.253469e+01 
5.951600e+00 4.203531e+01 
5.986560e+00 4.154552e+01 
6.021830e+00 4.105929e+01 
6.056490e+00 4.059011e+01 
6.091160e+00 4.012903e+01 
6.125830e+00 3.967512e+01 
6.161090e+00 3.922127e+01 
6.195760e+00 3.878320e+01 
6.230420e+00 3.835195e+01 
6.265690e+00 3.791982e+01 
6.300950e+00 3.749388e+01 
6.335620e+00 3.708144e+01 
6.370880e+00 3.666831e+01 
6.405550e+00 3.626933e+01 
6.440220e+00 3.587671e+01 
6.475480e+00 3.548335e+01 
6.510150e+00 3.510212e+01 
6.544810e+00 3.472617e+01 
6.580080e+00 3.434922e+01 
6.614750e+00 3.398409e+01 
6.649410e+00 3.362568e+01 
6.684080e+00 3.327258e+01 
6.719340e+00 3.291862e+01 
6.754010e+00 3.257540e+01 
6.788680e+00 3.223659e+01 
6.823940e+00 3.189692e+01 
6.859800e+00 3.155643e+01 
6.894470e+00 3.123155e+01 
6.929140e+00 3.091106e+01 
6.963800e+00 3.059510e+01 
6.999070e+00 3.027813e+01 
7.033730e+00 2.997223e+01 
7.068400e+00 2.967041e+01 
7.103660e+00 2.936766e+01 
7.138330e+00 2.907391e+01 
7.173600e+00 2.877886e+01 
7.208260e+00 2.849283e+01 
7.243530e+00 2.820570e+01 
7.277600e+00 2.793267e+01 
7.312860e+00 2.765443e+01 
7.348120e+00 2.737991e+01 
7.382790e+00 2.711356e+01 
7.417460e+00 2.685044e+01 
7.452720e+00 2.658623e+01 
7.487390e+00 2.632984e+01 
7.522650e+00 2.607249e+01 
7.557320e+00 2.582249e+01 
7.591990e+00 2.557562e+01 
7.627250e+00 2.532779e+01 
7.662510e+00 2.508315e+01 
7.697180e+00 2.484548e+01 
7.731850e+00 2.461072e+01 
7.766510e+00 2.437899e+01 
7.801180e+00 2.415009e+01 
7.836440e+00 2.392091e+01 
7.871110e+00 2.369882e+01 
7.906380e+00 2.347570e+01 
7.941040e+00 2.325916e+01 
7.976310e+00 2.304083e+01 
8.011570e+00 2.282445e+01 
8.046240e+00 2.261432e+01 
8.080900e+00 2.240680e+01 
8.115570e+00 2.220195e+01 
8.150830e+00 2.199697e+01 
8.185500e+00 2.179785e+01 
8.220770e+00 2.159774e+01 
8.255430e+00 2.140345e+01 
8.290100e+00 2.121226e+01 
8.324770e+00 2.102343e+01 
8.359430e+00 2.083687e+01 
8.394700e+00 2.064928e+01 
8.429960e+00 2.046338e+01 
8.464630e+00 2.028214e+01 
8.499890e+00 2.009999e+01 
8.534560e+00 1.992298e+01 
8.569200e+00 1.974817e+01 
