# Parameters:
# omega_b = 0.022270, omega_m = 0.141300, n_s = 0.968100, h = 67.900000, w = -1.000000, sigma_8 = 0.750000
# z = 0.000000
#
# k[1/Mpc] # P(k):
8.694000e-04 1.309352e+04 
2.077466e-03 2.808797e+04 
3.285532e-03 3.985368e+04 
4.493598e-03 4.892796e+04 
5.701664e-03 5.569721e+04 
6.909730e-03 6.052539e+04 
8.117797e-03 6.382900e+04 
9.325863e-03 6.582261e+04 
1.053393e-02 6.672361e+04 
1.174199e-02 6.673465e+04 
1.295006e-02 6.598412e+04 
1.415813e-02 6.464828e+04 
1.536619e-02 6.287486e+04 
1.657426e-02 6.077226e+04 
1.778233e-02 5.845305e+04 
1.899039e-02 5.604011e+04 
2.019846e-02 5.356393e+04 
2.140652e-02 5.108969e+04 
2.261459e-02 4.867329e+04 
2.382266e-02 4.636680e+04 
2.503072e-02 4.420128e+04 
2.623879e-02 4.219051e+04 
2.744685e-02 4.033860e+04 
2.865492e-02 3.865046e+04 
2.986299e-02 3.712026e+04 
3.100100e-02 3.582120e+04 
3.220400e-02 3.458548e+04 
3.288100e-02 3.394975e+04 
3.424300e-02 3.278680e+04 
3.555100e-02 3.180392e+04 
3.686000e-02 3.092393e+04 
3.795000e-02 3.026076e+04 
3.929100e-02 2.951971e+04 
4.039800e-02 2.895207e+04 
4.164000e-02 2.834370e+04 
4.294400e-02 2.772257e+04 
4.415000e-02 2.716454e+04 
4.542900e-02 2.655962e+04 
4.660900e-02 2.599515e+04 
4.782300e-02 2.538737e+04 
4.892900e-02 2.481883e+04 
5.031200e-02 2.408209e+04 
5.155900e-02 2.339305e+04 
5.238100e-02 2.292954e+04 
5.378200e-02 2.212907e+04 
5.513400e-02 2.134243e+04 
5.627600e-02 2.067930e+04 
5.735300e-02 2.006196e+04 
5.870100e-02 1.930146e+04 
5.988700e-02 1.865456e+04 
6.113500e-02 1.800110e+04 
6.225900e-02 1.743949e+04 
6.340100e-02 1.689745e+04 
6.480200e-02 1.627707e+04 
6.601100e-02 1.578379e+04 
6.725500e-02 1.531652e+04 
6.829100e-02 1.496254e+04 
6.958600e-02 1.455500e+04 
7.071100e-02 1.423398e+04 
7.192300e-02 1.391893e+04 
7.307400e-02 1.364739e+04 
7.412300e-02 1.342099e+04 
7.550400e-02 1.315182e+04 
7.663100e-02 1.294984e+04 
7.791200e-02 1.273817e+04 
7.912700e-02 1.255138e+04 
8.027600e-02 1.238129e+04 
8.138400e-02 1.222182e+04 
8.272200e-02 1.203300e+04 
8.406100e-02 1.184485e+04 
8.534100e-02 1.166175e+04 
8.653800e-02 1.148476e+04 
8.759800e-02 1.132574e+04 
8.900300e-02 1.111003e+04 
9.009000e-02 1.093680e+04 
9.113300e-02 1.076659e+04 
9.239600e-02 1.055851e+04 
9.358000e-02 1.035879e+04 
9.496100e-02 1.012412e+04 
9.608400e-02 9.933798e+03 
9.727500e-02 9.733423e+03 
9.852600e-02 9.523111e+03 
9.973800e-02 9.324735e+03 
1.009000e-01 9.139468e+03 
1.020900e-01 8.954654e+03 
1.034000e-01 8.759630e+03 
1.046000e-01 8.588951e+03 
1.057200e-01 8.438431e+03 
1.069100e-01 8.285120e+03 
1.082500e-01 8.125229e+03 
1.093900e-01 7.996678e+03 
1.105400e-01 7.872441e+03 
1.116900e-01 7.758819e+03 
1.129600e-01 7.639043e+03 
1.142000e-01 7.530970e+03 
1.153300e-01 7.437204e+03 
1.166400e-01 7.334751e+03 
1.177800e-01 7.249126e+03 
1.190000e-01 7.160307e+03 
1.201200e-01 7.082172e+03 
1.213400e-01 6.999331e+03 
1.227100e-01 6.907150e+03 
1.238900e-01 6.829267e+03 
1.250700e-01 6.751546e+03 
1.263200e-01 6.670005e+03 
1.275500e-01 6.589127e+03 
1.287500e-01 6.510962e+03 
1.299900e-01 6.430335e+03 
1.311300e-01 6.356197e+03 
1.323500e-01 6.276091e+03 
1.335900e-01 6.195646e+03 
1.347100e-01 6.123408e+03 
1.359800e-01 6.042550e+03 
1.372100e-01 5.964556e+03 
1.384300e-01 5.888465e+03 
1.395700e-01 5.817833e+03 
1.407700e-01 5.744935e+03 
1.420300e-01 5.669177e+03 
1.432800e-01 5.595660e+03 
1.444500e-01 5.529064e+03 
1.456300e-01 5.463245e+03 
1.468900e-01 5.394566e+03 
1.480500e-01 5.332667e+03 
1.491700e-01 5.274570e+03 
1.503800e-01 5.213693e+03 
1.516400e-01 5.151895e+03 
1.528200e-01 5.096544e+03 
1.540200e-01 5.041327e+03 
1.551900e-01 4.989835e+03 
1.564300e-01 4.936618e+03 
1.576600e-01 4.885192e+03 
1.588700e-01 4.835973e+03 
1.600900e-01 4.787334e+03 
1.612700e-01 4.742313e+03 
1.625400e-01 4.694753e+03 
1.637600e-01 4.649875e+03 
1.649500e-01 4.606861e+03 
1.662200e-01 4.561800e+03 
1.674000e-01 4.520755e+03 
1.685000e-01 4.483127e+03 
1.697500e-01 4.440909e+03 
1.710300e-01 4.398278e+03 
1.722200e-01 4.359340e+03 
1.734400e-01 4.319466e+03 
1.746400e-01 4.280885e+03 
1.758700e-01 4.241777e+03 
1.770900e-01 4.203175e+03 
1.782700e-01 4.166454e+03 
1.794600e-01 4.129613e+03 
1.807000e-01 4.091580e+03 
1.819100e-01 4.055082e+03 
1.830100e-01 4.022355e+03 
1.842200e-01 3.986899e+03 
1.855000e-01 3.950018e+03 
1.867000e-01 3.916187e+03 
1.879200e-01 3.882336e+03 
1.890900e-01 3.850350e+03 
1.902800e-01 3.818176e+03 
1.915200e-01 3.785173e+03 
1.926900e-01 3.754604e+03 
1.939000e-01 3.723769e+03 
1.951700e-01 3.691910e+03 
1.963100e-01 3.663845e+03 
1.975100e-01 3.635010e+03 
1.987800e-01 3.604957e+03 
2.000100e-01 3.576338e+03 
2.012500e-01 3.548019e+03 
2.023400e-01 3.523476e+03 
2.036100e-01 3.495321e+03 
2.048900e-01 3.467511e+03 
2.060400e-01 3.442886e+03 
2.072200e-01 3.417982e+03 
2.084200e-01 3.393189e+03 
2.096900e-01 3.367327e+03 
2.109200e-01 3.342644e+03 
2.121100e-01 3.319076e+03 
2.132700e-01 3.296411e+03 
2.145200e-01 3.272323e+03 
2.157200e-01 3.249543e+03 
2.168800e-01 3.227828e+03 
2.180700e-01 3.205845e+03 
2.193400e-01 3.182717e+03 
2.206000e-01 3.160115e+03 
2.217500e-01 3.139761e+03 
2.229500e-01 3.118795e+03 
2.241400e-01 3.098356e+03 
2.253500e-01 3.077846e+03 
2.264900e-01 3.058768e+03 
2.277100e-01 3.038833e+03 
2.289900e-01 3.018444e+03 
2.301500e-01 3.000207e+03 
2.313600e-01 2.981422e+03 
2.325600e-01 2.963092e+03 
2.337700e-01 2.944842e+03 
2.350000e-01 2.926526e+03 
2.362000e-01 2.909065e+03 
2.374100e-01 2.891894e+03 
2.386500e-01 2.874519e+03 
2.399100e-01 2.857089e+03 
2.410400e-01 2.841628e+03 
2.422500e-01 2.825266e+03 
2.435000e-01 2.808573e+03 
2.447300e-01 2.792437e+03 
2.458700e-01 2.778006e+03 
2.470600e-01 2.763117e+03 
2.483300e-01 2.747421e+03 
2.495600e-01 2.732360e+03 
2.507600e-01 2.717779e+03 
2.519600e-01 2.703368e+03 
2.532200e-01 2.688418e+03 
2.543700e-01 2.674932e+03 
2.555500e-01 2.661250e+03 
2.568000e-01 2.646925e+03 
2.580100e-01 2.633221e+03 
2.592400e-01 2.619437e+03 
2.604100e-01 2.606467e+03 
2.616100e-01 2.593313e+03 
2.628400e-01 2.579983e+03 
2.640600e-01 2.566876e+03 
2.652200e-01 2.554536e+03 
2.664300e-01 2.541806e+03 
2.676500e-01 2.529113e+03 
2.688400e-01 2.516677e+03 
2.700700e-01 2.503844e+03 
2.712400e-01 2.491769e+03 
2.724800e-01 2.479111e+03 
2.736700e-01 2.467081e+03 
2.748800e-01 2.454965e+03 
2.761000e-01 2.442881e+03 
2.773200e-01 2.430927e+03 
2.785400e-01 2.419018e+03 
2.797000e-01 2.407636e+03 
2.808900e-01 2.396078e+03 
2.821400e-01 2.384068e+03 
2.833900e-01 2.372182e+03 
2.845500e-01 2.361172e+03 
2.857800e-01 2.349616e+03 
2.870300e-01 2.337997e+03 
2.882100e-01 2.327142e+03 
2.893900e-01 2.316265e+03 
2.906300e-01 2.304881e+03 
2.918900e-01 2.293435e+03 
2.930500e-01 2.283004e+03 
2.942500e-01 2.272328e+03 
2.954200e-01 2.262048e+03 
2.966500e-01 2.251348e+03 
2.978900e-01 2.240671e+03 
2.990400e-01 2.230866e+03 
3.002700e-01 2.220360e+03 
3.015100e-01 2.209816e+03 
3.026800e-01 2.199964e+03 
3.038500e-01 2.190206e+03 
3.050300e-01 2.180457e+03 
3.062600e-01 2.170446e+03 
3.075000e-01 2.160452e+03 
3.087000e-01 2.150874e+03 
3.099100e-01 2.141309e+03 
3.111200e-01 2.131813e+03 
3.123100e-01 2.122524e+03 
3.135300e-01 2.113092e+03 
3.147300e-01 2.103901e+03 
3.159900e-01 2.094343e+03 
3.171800e-01 2.085369e+03 
3.183700e-01 2.076455e+03 
3.196300e-01 2.067107e+03 
3.208400e-01 2.058213e+03 
3.220300e-01 2.049547e+03 
3.232000e-01 2.041132e+03 
3.244300e-01 2.032378e+03 
3.256700e-01 2.023635e+03 
3.269200e-01 2.014903e+03 
3.280800e-01 2.006874e+03 
3.292500e-01 1.998877e+03 
3.304800e-01 1.990556e+03 
3.317100e-01 1.982310e+03 
3.328900e-01 1.974470e+03 
3.340700e-01 1.966698e+03 
3.353600e-01 1.958304e+03 
3.365300e-01 1.950770e+03 
3.377100e-01 1.943236e+03 
3.389200e-01 1.935577e+03 
3.401600e-01 1.927798e+03 
3.413700e-01 1.920292e+03 
3.425300e-01 1.913169e+03 
3.437700e-01 1.905621e+03 
3.449800e-01 1.898320e+03 
3.461800e-01 1.891141e+03 
3.473600e-01 1.884152e+03 
3.485800e-01 1.877011e+03 
3.498100e-01 1.869874e+03 
3.510200e-01 1.862913e+03 
3.522000e-01 1.856182e+03 
3.533900e-01 1.849449e+03 
3.546400e-01 1.842536e+03 
3.558400e-01 1.835962e+03 
3.570600e-01 1.829334e+03 
3.582700e-01 1.822816e+03 
3.595000e-01 1.816246e+03 
3.607100e-01 1.809811e+03 
3.618900e-01 1.803568e+03 
3.631200e-01 1.797113e+03 
3.643200e-01 1.790868e+03 
3.655500e-01 1.784519e+03 
3.667300e-01 1.778478e+03 
3.679500e-01 1.772299e+03 
3.691900e-01 1.766071e+03 
3.703600e-01 1.760242e+03 
3.715700e-01 1.754261e+03 
3.727700e-01 1.748378e+03 
3.739900e-01 1.742455e+03 
3.752000e-01 1.736645e+03 
3.763900e-01 1.730977e+03 
3.775800e-01 1.725354e+03 
3.788200e-01 1.719541e+03 
3.800300e-01 1.713914e+03 
3.812100e-01 1.708478e+03 
3.824200e-01 1.702953e+03 
3.836100e-01 1.697561e+03 
3.848600e-01 1.691943e+03 
3.860400e-01 1.686681e+03 
3.872400e-01 1.681370e+03 
3.884600e-01 1.676027e+03 
3.896500e-01 1.670860e+03 
3.908700e-01 1.665604e+03 
3.920600e-01 1.660516e+03 
3.933100e-01 1.655213e+03 
3.945300e-01 1.650078e+03 
3.957200e-01 1.645072e+03 
3.969300e-01 1.640010e+03 
3.981700e-01 1.634863e+03 
3.993500e-01 1.630001e+03 
4.094840e-01 1.589774e+03 
4.272360e-01 1.524387e+03 
4.454600e-01 1.462842e+03 
4.630560e-01 1.408205e+03 
4.804610e-01 1.357727e+03 
4.980690e-01 1.310519e+03 
5.159230e-01 1.265604e+03 
5.317440e-01 1.228509e+03 
5.489640e-01 1.190344e+03 
5.671990e-01 1.152455e+03 
5.838690e-01 1.119933e+03 
6.018840e-01 1.086870e+03 
6.202330e-01 1.054868e+03 
6.379250e-01 1.025984e+03 
6.545410e-01 1.000101e+03 
6.714560e-01 9.750432e+02 
6.892080e-01 9.499365e+02 
7.066010e-01 9.266155e+02 
7.240540e-01 9.041758e+02 
7.420450e-01 8.819108e+02 
7.593780e-01 8.615322e+02 
7.764720e-01 8.420425e+02 
7.942840e-01 8.225339e+02 
8.116170e-01 8.043403e+02 
8.288310e-01 7.868317e+02 
8.462240e-01 7.698040e+02 
8.631980e-01 7.536552e+02 
8.810700e-01 7.372260e+02 
8.989410e-01 7.213576e+02 
9.166330e-01 7.062032e+02 
9.345640e-01 6.912069e+02 
9.515980e-01 6.774186e+02 
9.688720e-01 6.638442e+02 
9.865640e-01 6.503131e+02 
1.031870e+00 6.174824e+02 
1.063490e+00 5.959751e+02 
1.097920e+00 5.735786e+02 
1.134370e+00 5.512134e+02 
1.167730e+00 5.318862e+02 
1.203830e+00 5.118820e+02 
1.240470e+00 4.927306e+02 
1.275790e+00 4.751307e+02 
1.309140e+00 4.592966e+02 
1.342970e+00 4.439850e+02 
1.378420e+00 4.286919e+02 
1.413200e+00 4.144234e+02 
1.448110e+00 4.007423e+02 
1.484090e+00 3.872939e+02 
1.518820e+00 3.748952e+02 
1.552880e+00 3.633171e+02 
1.588630e+00 3.516588e+02 
1.623230e+00 3.408558e+02 
1.657720e+00 3.305682e+02 
1.692450e+00 3.206546e+02 
1.726400e+00 3.113520e+02 
1.762200e+00 3.019969e+02 
1.797880e+00 2.930092e+02 
1.833270e+00 2.845050e+02 
1.869070e+00 2.762426e+02 
1.903200e+00 2.686686e+02 
1.937740e+00 2.612890e+02 
1.973190e+00 2.540185e+02 
2.007440e+00 2.472910e+02 
2.042160e+00 2.407173e+02 
2.077900e+00 2.341972e+02 
2.112390e+00 2.281324e+02 
2.146220e+00 2.224299e+02 
2.181600e+00 2.166348e+02 
2.216930e+00 2.110766e+02 
2.250760e+00 2.059676e+02 
2.286500e+00 2.007556e+02 
2.321770e+00 1.957699e+02 
2.355950e+00 1.911257e+02 
2.391280e+00 1.864792e+02 
2.426240e+00 1.820323e+02 
2.460670e+00 1.778058e+02 
2.495640e+00 1.736666e+02 
2.531080e+00 1.695736e+02 
2.566220e+00 1.656646e+02 
2.600830e+00 1.619525e+02 
2.635080e+00 1.584063e+02 
2.670340e+00 1.548349e+02 
2.705970e+00 1.513537e+02 
2.740040e+00 1.481344e+02 
2.774520e+00 1.449672e+02 
2.809730e+00 1.418428e+02 
2.844390e+00 1.388640e+02 
2.879960e+00 1.358926e+02 
2.914860e+00 1.330600e+02 
2.949410e+00 1.303362e+02 
2.984440e+00 1.276487e+02 
3.019760e+00 1.250260e+02 
3.054730e+00 1.225092e+02 
3.089030e+00 1.201038e+02 
3.124060e+00 1.177214e+02 
3.159560e+00 1.153818e+02 
3.194710e+00 1.131250e+02 
3.229010e+00 1.109822e+02 
3.263320e+00 1.088904e+02 
3.297930e+00 1.068403e+02 
3.332830e+00 1.048340e+02 
3.368040e+00 1.028613e+02 
3.403300e+00 1.009366e+02 
3.438450e+00 9.907440e+01 
3.473060e+00 9.729036e+01 
3.508440e+00 9.550857e+01 
3.543110e+00 9.380724e+01 
3.577470e+00 9.215970e+01 
3.613040e+00 9.049913e+01 
3.648120e+00 8.890714e+01 
3.682910e+00 8.736637e+01 
3.718050e+00 8.584584e+01 
3.753320e+00 8.435964e+01 
3.787980e+00 8.293778e+01 
3.822290e+00 8.156249e+01 
3.857020e+00 8.020115e+01 
3.891920e+00 7.886727e+01 
3.926650e+00 7.757404e+01 
3.961970e+00 7.628874e+01 
3.997360e+00 7.502873e+01 
4.031670e+00 7.383617e+01 
4.066330e+00 7.266237e+01 
4.101420e+00 7.150108e+01 
4.136200e+00 7.037988e+01 
4.170810e+00 6.928890e+01 
4.206250e+00 6.819416e+01 
4.241580e+00 6.712670e+01 
4.276300e+00 6.609881e+01 
4.310970e+00 6.509349e+01 
4.346120e+00 6.409768e+01 
4.380600e+00 6.314411e+01 
4.414730e+00 6.221998e+01 
4.450350e+00 6.127943e+01 
4.485320e+00 6.037551e+01 
4.519810e+00 5.950089e+01 
4.555430e+00 5.861563e+01 
4.590870e+00 5.775416e+01 
4.625480e+00 5.693205e+01 
4.659910e+00 5.613051e+01 
4.695230e+00 5.532766e+01 
4.729960e+00 5.455438e+01 
4.764450e+00 5.380076e+01 
4.799530e+00 5.304805e+01 
4.834910e+00 5.230382e+01 
4.869700e+00 5.158860e+01 
4.904370e+00 5.088985e+01 
4.939450e+00 5.019588e+01 
4.973940e+00 4.952538e+01 
5.008430e+00 4.886736e+01 
5.043810e+00 4.820671e+01 
5.078840e+00 4.756584e+01 
5.113500e+00 4.694342e+01 
5.148890e+00 4.632203e+01 
5.184210e+00 4.571340e+01 
5.219060e+00 4.512346e+01 
5.253660e+00 4.454729e+01 
5.288570e+00 4.397632e+01 
5.323420e+00 4.341757e+01 
5.358440e+00 4.286726e+01 
5.393590e+00 4.232464e+01 
5.428310e+00 4.179950e+01 
5.462800e+00 4.128758e+01 
5.497640e+00 4.077931e+01 
5.532670e+00 4.027614e+01 
5.567280e+00 3.978718e+01 
5.602000e+00 3.930491e+01 
5.637270e+00 3.882495e+01 
5.672410e+00 3.835521e+01 
5.707020e+00 3.790024e+01 
5.742040e+00 3.744914e+01 
5.777430e+00 3.700117e+01 
5.812210e+00 3.656814e+01 
5.846820e+00 3.614344e+01 
5.881610e+00 3.572319e+01 
5.916510e+00 3.530838e+01 
5.951600e+00 3.489753e+01 
5.986560e+00 3.449452e+01 
6.021830e+00 3.409443e+01 
6.056490e+00 3.370836e+01 
6.091160e+00 3.332895e+01 
6.125830e+00 3.295541e+01 
6.161090e+00 3.258191e+01 
6.195760e+00 3.222138e+01 
6.230420e+00 3.186645e+01 
6.265690e+00 3.151076e+01 
6.300950e+00 3.116013e+01 
6.335620e+00 3.082059e+01 
6.370880e+00 3.048047e+01 
6.405550e+00 3.015199e+01 
6.440220e+00 2.982876e+01 
6.475480e+00 2.950489e+01 
6.510150e+00 2.919100e+01 
6.544810e+00 2.888145e+01 
6.580080e+00 2.857105e+01 
6.614750e+00 2.827038e+01 
6.649410e+00 2.797525e+01 
6.684080e+00 2.768446e+01 
6.719340e+00 2.739297e+01 
6.754010e+00 2.711028e+01 
6.788680e+00 2.683123e+01 
6.823940e+00 2.655143e+01 
6.859800e+00 2.627095e+01 
6.894470e+00 2.600334e+01 
6.929140e+00 2.573933e+01 
6.963800e+00 2.547904e+01 
6.999070e+00 2.521790e+01 
7.033730e+00 2.496589e+01 
7.068400e+00 2.471723e+01 
7.103660e+00 2.446779e+01 
7.138330e+00 2.422575e+01 
7.173600e+00 2.398265e+01 
7.208260e+00 2.374697e+01 
7.243530e+00 2.351036e+01 
7.277600e+00 2.328537e+01 
7.312860e+00 2.305609e+01 
7.348120e+00 2.282986e+01 
7.382790e+00 2.261035e+01 
7.417460e+00 2.239351e+01 
7.452720e+00 2.217576e+01 
7.487390e+00 2.196444e+01 
7.522650e+00 2.175230e+01 
7.557320e+00 2.154624e+01 
7.591990e+00 2.134274e+01 
7.627250e+00 2.113843e+01 
7.662510e+00 2.093675e+01 
7.697180e+00 2.074082e+01 
7.731850e+00 2.054728e+01 
7.766510e+00 2.035622e+01 
7.801180e+00 2.016749e+01 
7.836440e+00 1.997853e+01 
7.871110e+00 1.979541e+01 
7.906380e+00 1.961143e+01 
7.941040e+00 1.943286e+01 
7.976310e+00 1.925281e+01 
8.011570e+00 1.907434e+01 
8.046240e+00 1.890102e+01 
8.080900e+00 1.872984e+01 
8.115570e+00 1.856086e+01 
8.150830e+00 1.839179e+01 
8.185500e+00 1.822755e+01 
8.220770e+00 1.806247e+01 
8.255430e+00 1.790219e+01 
8.290100e+00 1.774447e+01 
8.324770e+00 1.758869e+01 
8.359430e+00 1.743477e+01 
8.394700e+00 1.727998e+01 
8.429960e+00 1.712658e+01 
8.464630e+00 1.697702e+01 
8.499890e+00 1.682669e+01 
8.534560e+00 1.668059e+01 
8.569200e+00 1.653630e+01 
