# Parameters:
# omega_b = 0.022270, omega_m = 0.141300, n_s = 0.968100, h = 67.900000, w = -1.000000, sigma_8 = 0.610000
# z = 0.000000
#
# k[1/Mpc] # P(k):
8.694000e-04 8.590416e+03 
2.077466e-03 1.838867e+04 
3.285532e-03 2.607955e+04 
4.493598e-03 3.201441e+04 
5.701664e-03 3.645184e+04 
6.909730e-03 3.962565e+04 
8.117797e-03 4.180445e+04 
9.325863e-03 4.312760e+04 
1.053393e-02 4.373725e+04 
1.174199e-02 4.376638e+04 
1.295006e-02 4.329845e+04 
1.415813e-02 4.244766e+04 
1.536619e-02 4.130916e+04 
1.657426e-02 3.995433e+04 
1.778233e-02 3.846282e+04 
1.899039e-02 3.691512e+04 
2.019846e-02 3.531781e+04 
2.140652e-02 3.370885e+04 
2.261459e-02 3.212969e+04 
2.382266e-02 3.061738e+04 
2.503072e-02 2.919375e+04 
2.623879e-02 2.786834e+04 
2.744685e-02 2.664429e+04 
2.865492e-02 2.552604e+04 
2.986299e-02 2.451049e+04 
3.100100e-02 2.364717e+04 
3.220400e-02 2.282540e+04 
3.288100e-02 2.240283e+04 
3.424300e-02 2.163052e+04 
3.555100e-02 2.097970e+04 
3.686000e-02 2.039950e+04 
3.795000e-02 1.996461e+04 
3.929100e-02 1.948231e+04 
4.039800e-02 1.911556e+04 
4.164000e-02 1.872455e+04 
4.294400e-02 1.832766e+04 
4.415000e-02 1.797164e+04 
4.542900e-02 1.758482e+04 
4.660900e-02 1.722245e+04 
4.782300e-02 1.682883e+04 
4.892900e-02 1.645774e+04 
5.031200e-02 1.597203e+04 
5.155900e-02 1.551261e+04 
5.238100e-02 1.520100e+04 
5.378200e-02 1.465867e+04 
5.513400e-02 1.412072e+04 
5.627600e-02 1.366394e+04 
5.735300e-02 1.323666e+04 
5.870100e-02 1.270841e+04 
5.988700e-02 1.225803e+04 
6.113500e-02 1.180261e+04 
6.225900e-02 1.141138e+04 
6.340100e-02 1.103466e+04 
6.480200e-02 1.060482e+04 
6.601100e-02 1.026511e+04 
6.725500e-02 9.945429e+03 
6.829100e-02 9.705364e+03 
6.958600e-02 9.431129e+03 
7.071100e-02 9.217588e+03 
7.192300e-02 9.010235e+03 
7.307400e-02 8.833459e+03 
7.412300e-02 8.687530e+03 
7.550400e-02 8.516072e+03 
7.663100e-02 8.388431e+03 
7.791200e-02 8.255706e+03 
7.912700e-02 8.138791e+03 
8.027600e-02 8.032055e+03 
8.138400e-02 7.931518e+03 
8.272200e-02 7.811559e+03 
8.406100e-02 7.690771e+03 
8.534100e-02 7.571706e+03 
8.653800e-02 7.455405e+03 
8.759800e-02 7.350188e+03 
8.900300e-02 7.206410e+03 
9.009000e-02 7.090227e+03 
9.113300e-02 6.975431e+03 
9.239600e-02 6.834617e+03 
9.358000e-02 6.698962e+03 
9.496100e-02 6.538705e+03 
9.608400e-02 6.408338e+03 
9.727500e-02 6.270810e+03 
9.852600e-02 6.125526e+03 
9.973800e-02 5.988167e+03 
1.009000e-01 5.859638e+03 
1.020900e-01 5.730922e+03 
1.034000e-01 5.594963e+03 
1.046000e-01 5.475816e+03 
1.057200e-01 5.370735e+03 
1.069100e-01 5.263811e+03 
1.082500e-01 5.152528e+03 
1.093900e-01 5.063529e+03 
1.105400e-01 4.977809e+03 
1.116900e-01 4.900137e+03 
1.129600e-01 4.818590e+03 
1.142000e-01 4.745944e+03 
1.153300e-01 4.683344e+03 
1.166400e-01 4.615613e+03 
1.177800e-01 4.559674e+03 
1.190000e-01 4.501964e+03 
1.201200e-01 4.451776e+03 
1.213400e-01 4.398669e+03 
1.227100e-01 4.340003e+03 
1.238900e-01 4.290449e+03 
1.250700e-01 4.241007e+03 
1.263200e-01 4.189024e+03 
1.275500e-01 4.137221e+03 
1.287500e-01 4.086904e+03 
1.299900e-01 4.034607e+03 
1.311300e-01 3.986189e+03 
1.323500e-01 3.933390e+03 
1.335900e-01 3.879974e+03 
1.347100e-01 3.831492e+03 
1.359800e-01 3.776910e+03 
1.372100e-01 3.723623e+03 
1.384300e-01 3.671430e+03 
1.395700e-01 3.622462e+03 
1.407700e-01 3.571895e+03 
1.420300e-01 3.518829e+03 
1.432800e-01 3.467367e+03 
1.444500e-01 3.420412e+03 
1.456300e-01 3.374036e+03 
1.468900e-01 3.325773e+03 
1.480500e-01 3.282332e+03 
1.491700e-01 3.241718e+03 
1.503800e-01 3.199358e+03 
1.516400e-01 3.156488e+03 
1.528200e-01 3.118588e+03 
1.540200e-01 3.080794e+03 
1.551900e-01 3.046099e+03 
1.564300e-01 3.010385e+03 
1.576600e-01 2.976202e+03 
1.588700e-01 2.943880e+03 
1.600900e-01 2.911970e+03 
1.612700e-01 2.882918e+03 
1.625400e-01 2.852230e+03 
1.637600e-01 2.823466e+03 
1.649500e-01 2.796009e+03 
1.662200e-01 2.767248e+03 
1.674000e-01 2.741051e+03 
1.685000e-01 2.717037e+03 
1.697500e-01 2.689993e+03 
1.710300e-01 2.662586e+03 
1.722200e-01 2.637555e+03 
1.734400e-01 2.611566e+03 
1.746400e-01 2.586409e+03 
1.758700e-01 2.560790e+03 
1.770900e-01 2.535258e+03 
1.782700e-01 2.510975e+03 
1.794600e-01 2.486413e+03 
1.807000e-01 2.460928e+03 
1.819100e-01 2.436477e+03 
1.830100e-01 2.414356e+03 
1.842200e-01 2.390363e+03 
1.855000e-01 2.365406e+03 
1.867000e-01 2.342376e+03 
1.879200e-01 2.319338e+03 
1.890900e-01 2.297579e+03 
1.902800e-01 2.275708e+03 
1.915200e-01 2.253281e+03 
1.926900e-01 2.232529e+03 
1.939000e-01 2.211647e+03 
1.951700e-01 2.190078e+03 
1.963100e-01 2.171114e+03 
1.975100e-01 2.151715e+03 
1.987800e-01 2.131502e+03 
2.000100e-01 2.112303e+03 
2.012500e-01 2.093413e+03 
2.023400e-01 2.077046e+03 
2.036100e-01 2.058300e+03 
2.048900e-01 2.039892e+03 
2.060400e-01 2.023595e+03 
2.072200e-01 2.007122e+03 
2.084200e-01 1.990797e+03 
2.096900e-01 1.973770e+03 
2.109200e-01 1.957522e+03 
2.121100e-01 1.942040e+03 
2.132700e-01 1.927154e+03 
2.145200e-01 1.911337e+03 
2.157200e-01 1.896345e+03 
2.168800e-01 1.882038e+03 
2.180700e-01 1.867556e+03 
2.193400e-01 1.852281e+03 
2.206000e-01 1.837275e+03 
2.217500e-01 1.823764e+03 
2.229500e-01 1.809849e+03 
2.241400e-01 1.796087e+03 
2.253500e-01 1.782274e+03 
2.264900e-01 1.769428e+03 
2.277100e-01 1.755871e+03 
2.289900e-01 1.741855e+03 
2.301500e-01 1.729319e+03 
2.313600e-01 1.716407e+03 
2.325600e-01 1.703536e+03 
2.337700e-01 1.690723e+03 
2.350000e-01 1.677867e+03 
2.362000e-01 1.665474e+03 
2.374100e-01 1.653124e+03 
2.386500e-01 1.640628e+03 
2.399100e-01 1.628095e+03 
2.410400e-01 1.616824e+03 
2.422500e-01 1.604878e+03 
2.435000e-01 1.592693e+03 
2.447300e-01 1.580882e+03 
2.458700e-01 1.570179e+03 
2.470600e-01 1.559139e+03 
2.483300e-01 1.547500e+03 
2.495600e-01 1.536342e+03 
2.507600e-01 1.525551e+03 
2.519600e-01 1.514887e+03 
2.532200e-01 1.503825e+03 
2.543700e-01 1.493909e+03 
2.555500e-01 1.483892e+03 
2.568000e-01 1.473405e+03 
2.580100e-01 1.463373e+03 
2.592400e-01 1.453410e+03 
2.604100e-01 1.444091e+03 
2.616100e-01 1.434641e+03 
2.628400e-01 1.425066e+03 
2.640600e-01 1.415807e+03 
2.652200e-01 1.407154e+03 
2.664300e-01 1.398227e+03 
2.676500e-01 1.389326e+03 
2.688400e-01 1.380778e+03 
2.700700e-01 1.372064e+03 
2.712400e-01 1.363866e+03 
2.724800e-01 1.355271e+03 
2.736700e-01 1.347198e+03 
2.748800e-01 1.339163e+03 
2.761000e-01 1.331150e+03 
2.773200e-01 1.323224e+03 
2.785400e-01 1.315383e+03 
2.797000e-01 1.308006e+03 
2.808900e-01 1.300517e+03 
2.821400e-01 1.292733e+03 
2.833900e-01 1.285036e+03 
2.845500e-01 1.278009e+03 
2.857800e-01 1.270635e+03 
2.870300e-01 1.263221e+03 
2.882100e-01 1.256294e+03 
2.893900e-01 1.249410e+03 
2.906300e-01 1.242235e+03 
2.918900e-01 1.235022e+03 
2.930500e-01 1.228448e+03 
2.942500e-01 1.221730e+03 
2.954200e-01 1.215294e+03 
2.966500e-01 1.208595e+03 
2.978900e-01 1.201910e+03 
2.990400e-01 1.195771e+03 
3.002700e-01 1.189236e+03 
3.015100e-01 1.182698e+03 
3.026800e-01 1.176589e+03 
3.038500e-01 1.170538e+03 
3.050300e-01 1.164493e+03 
3.062600e-01 1.158286e+03 
3.075000e-01 1.152090e+03 
3.087000e-01 1.146153e+03 
3.099100e-01 1.140223e+03 
3.111200e-01 1.134349e+03 
3.123100e-01 1.128628e+03 
3.135300e-01 1.122818e+03 
3.147300e-01 1.117157e+03 
3.159900e-01 1.111269e+03 
3.171800e-01 1.105753e+03 
3.183700e-01 1.100282e+03 
3.196300e-01 1.094544e+03 
3.208400e-01 1.089085e+03 
3.220300e-01 1.083766e+03 
3.232000e-01 1.078608e+03 
3.244300e-01 1.073245e+03 
3.256700e-01 1.067888e+03 
3.269200e-01 1.062538e+03 
3.280800e-01 1.057618e+03 
3.292500e-01 1.052743e+03 
3.304800e-01 1.047678e+03 
3.317100e-01 1.042659e+03 
3.328900e-01 1.037887e+03 
3.340700e-01 1.033156e+03 
3.353600e-01 1.028054e+03 
3.365300e-01 1.023476e+03 
3.377100e-01 1.018899e+03 
3.389200e-01 1.014245e+03 
3.401600e-01 1.009519e+03 
3.413700e-01 1.004970e+03 
3.425300e-01 1.000661e+03 
3.437700e-01 9.960950e+02 
3.449800e-01 9.916780e+02 
3.461800e-01 9.873348e+02 
3.473600e-01 9.831112e+02 
3.485800e-01 9.788091e+02 
3.498100e-01 9.745090e+02 
3.510200e-01 9.703147e+02 
3.522000e-01 9.662584e+02 
3.533900e-01 9.622014e+02 
3.546400e-01 9.580588e+02 
3.558400e-01 9.541202e+02 
3.570600e-01 9.501491e+02 
3.582700e-01 9.462433e+02 
3.595000e-01 9.423059e+02 
3.607100e-01 9.384620e+02 
3.618900e-01 9.347416e+02 
3.631200e-01 9.308950e+02 
3.643200e-01 9.271729e+02 
3.655500e-01 9.233888e+02 
3.667300e-01 9.197877e+02 
3.679500e-01 9.161330e+02 
3.691900e-01 9.124487e+02 
3.703600e-01 9.090001e+02 
3.715700e-01 9.054616e+02 
3.727700e-01 9.019800e+02 
3.739900e-01 8.984762e+02 
3.752000e-01 8.950427e+02 
3.763900e-01 8.916923e+02 
3.775800e-01 8.883677e+02 
3.788200e-01 8.849307e+02 
3.800300e-01 8.816033e+02 
3.812100e-01 8.784092e+02 
3.824200e-01 8.751766e+02 
3.836100e-01 8.720218e+02 
3.848600e-01 8.687337e+02 
3.860400e-01 8.656536e+02 
3.872400e-01 8.625450e+02 
3.884600e-01 8.594205e+02 
3.896500e-01 8.564005e+02 
3.908700e-01 8.533278e+02 
3.920600e-01 8.503533e+02 
3.933100e-01 8.472525e+02 
3.945300e-01 8.442494e+02 
3.957200e-01 8.413422e+02 
3.969300e-01 8.384081e+02 
3.981700e-01 8.354240e+02 
3.993500e-01 8.326054e+02 
4.094840e-01 8.093484e+02 
4.272360e-01 7.719055e+02 
4.454600e-01 7.370440e+02 
4.630560e-01 7.063569e+02 
4.804610e-01 6.782955e+02 
4.980690e-01 6.522420e+02 
5.159230e-01 6.277063e+02 
5.317440e-01 6.076467e+02 
5.489640e-01 5.871669e+02 
5.671990e-01 5.671230e+02 
5.838690e-01 5.500732e+02 
6.018840e-01 5.329597e+02 
6.202330e-01 5.166279e+02 
6.379250e-01 5.020395e+02 
6.545410e-01 4.891663e+02 
6.714560e-01 4.768143e+02 
6.892080e-01 4.646083e+02 
7.066010e-01 4.533969e+02 
7.240540e-01 4.426866e+02 
7.420450e-01 4.322084e+02 
7.593780e-01 4.227086e+02 
7.764720e-01 4.136752e+02 
7.942840e-01 4.047251e+02 
8.116170e-01 3.964155e+02 
8.288310e-01 3.884828e+02 
8.462240e-01 3.808080e+02 
8.631980e-01 3.735482e+02 
8.810700e-01 3.661798e+02 
8.989410e-01 3.590932e+02 
9.166330e-01 3.523541e+02 
9.345640e-01 3.456696e+02 
9.515980e-01 3.395341e+02 
9.688720e-01 3.335122e+02 
9.865640e-01 3.274951e+02 
1.031870e+00 3.128914e+02 
1.063490e+00 3.032964e+02 
1.097920e+00 2.932566e+02 
1.134370e+00 2.831994e+02 
1.167730e+00 2.744704e+02 
1.203830e+00 2.653617e+02 
1.240470e+00 2.566068e+02 
1.275790e+00 2.485094e+02 
1.309140e+00 2.411694e+02 
1.342970e+00 2.340347e+02 
1.378420e+00 2.268718e+02 
1.413200e+00 2.201446e+02 
1.448110e+00 2.136500e+02 
1.484090e+00 2.072374e+02 
1.518820e+00 2.012862e+02 
1.552880e+00 1.957010e+02 
1.588630e+00 1.900397e+02 
1.623230e+00 1.847712e+02 
1.657720e+00 1.797269e+02 
1.692450e+00 1.748445e+02 
1.726400e+00 1.702335e+02 
1.762200e+00 1.655800e+02 
1.797880e+00 1.610822e+02 
1.833270e+00 1.568150e+02 
1.869070e+00 1.526497e+02 
1.903200e+00 1.488110e+02 
1.937740e+00 1.450576e+02 
1.973190e+00 1.413450e+02 
2.007440e+00 1.378974e+02 
2.042160e+00 1.345150e+02 
2.077900e+00 1.311484e+02 
2.112390e+00 1.280055e+02 
2.146220e+00 1.250400e+02 
2.181600e+00 1.220149e+02 
2.216930e+00 1.191042e+02 
2.250760e+00 1.164215e+02 
2.286500e+00 1.136766e+02 
2.321770e+00 1.110422e+02 
2.355950e+00 1.085813e+02 
2.391280e+00 1.061111e+02 
2.426240e+00 1.037400e+02 
2.460670e+00 1.014810e+02 
2.495640e+00 9.926417e+01 
2.531080e+00 9.706309e+01 
2.566220e+00 9.495647e+01 
2.600830e+00 9.295211e+01 
2.635080e+00 9.103392e+01 
2.670340e+00 8.909430e+01 
2.705970e+00 8.720026e+01 
2.740040e+00 8.544558e+01 
2.774520e+00 8.371501e+01 
2.809730e+00 8.200417e+01 
2.844390e+00 8.037018e+01 
2.879960e+00 7.873645e+01 
2.914860e+00 7.717532e+01 
2.949410e+00 7.567188e+01 
2.984440e+00 7.418511e+01 
3.019760e+00 7.273170e+01 
3.054730e+00 7.133525e+01 
3.089030e+00 6.999677e+01 
3.124060e+00 6.866954e+01 
3.159560e+00 6.736417e+01 
3.194710e+00 6.610257e+01 
3.229010e+00 6.490341e+01 
3.263320e+00 6.372966e+01 
3.297930e+00 6.257828e+01 
3.332830e+00 6.144989e+01 
3.368040e+00 6.033861e+01 
3.403300e+00 5.925304e+01 
3.438450e+00 5.820088e+01 
3.473060e+00 5.719219e+01 
3.508440e+00 5.618270e+01 
3.543110e+00 5.521813e+01 
3.577470e+00 5.428200e+01 
3.613040e+00 5.333783e+01 
3.648120e+00 5.243142e+01 
3.682910e+00 5.155334e+01 
3.718050e+00 5.068549e+01 
3.753320e+00 4.983655e+01 
3.787980e+00 4.902354e+01 
3.822290e+00 4.823636e+01 
3.857020e+00 4.745608e+01 
3.891920e+00 4.669098e+01 
3.926650e+00 4.594835e+01 
3.961970e+00 4.520975e+01 
3.997360e+00 4.448468e+01 
4.031670e+00 4.379810e+01 
4.066330e+00 4.312150e+01 
4.101420e+00 4.245192e+01 
4.136200e+00 4.180463e+01 
4.170810e+00 4.117464e+01 
4.206250e+00 4.054152e+01 
4.241580e+00 3.992388e+01 
4.276300e+00 3.932851e+01 
4.310970e+00 3.874582e+01 
4.346120e+00 3.816835e+01 
4.380600e+00 3.761502e+01 
4.414730e+00 3.707863e+01 
4.450350e+00 3.653194e+01 
4.485320e+00 3.600642e+01 
4.519810e+00 3.549752e+01 
4.555430e+00 3.498217e+01 
4.590870e+00 3.448044e+01 
4.625480e+00 3.400128e+01 
4.659910e+00 3.353400e+01 
4.695230e+00 3.306559e+01 
4.729960e+00 3.261430e+01 
4.764450e+00 3.217426e+01 
4.799530e+00 3.173446e+01 
4.834910e+00 3.129953e+01 
4.869700e+00 3.088121e+01 
4.904370e+00 3.047241e+01 
4.939450e+00 3.006627e+01 
4.973940e+00 2.967362e+01 
5.008430e+00 2.928821e+01 
5.043810e+00 2.890106e+01 
5.078840e+00 2.852537e+01 
5.113500e+00 2.816043e+01 
5.148890e+00 2.779587e+01 
5.184210e+00 2.743873e+01 
5.219060e+00 2.709246e+01 
5.253660e+00 2.675415e+01 
5.288570e+00 2.641884e+01 
5.323420e+00 2.609056e+01 
5.358440e+00 2.576711e+01 
5.393590e+00 2.544812e+01 
5.428310e+00 2.513936e+01 
5.462800e+00 2.483833e+01 
5.497640e+00 2.453939e+01 
5.532670e+00 2.424330e+01 
5.567280e+00 2.395548e+01 
5.602000e+00 2.367156e+01 
5.637270e+00 2.338896e+01 
5.672410e+00 2.311233e+01 
5.707020e+00 2.284435e+01 
5.742040e+00 2.257858e+01 
5.777430e+00 2.231459e+01 
5.812210e+00 2.205938e+01 
5.846820e+00 2.180902e+01 
5.881610e+00 2.156126e+01 
5.916510e+00 2.131666e+01 
5.951600e+00 2.107432e+01 
5.986560e+00 2.083657e+01 
6.021830e+00 2.060048e+01 
6.056490e+00 2.037268e+01 
6.091160e+00 2.014881e+01 
6.125830e+00 1.992837e+01 
6.161090e+00 1.970792e+01 
6.195760e+00 1.949512e+01 
6.230420e+00 1.928558e+01 
6.265690e+00 1.907556e+01 
6.300950e+00 1.886849e+01 
6.335620e+00 1.866792e+01 
6.370880e+00 1.846698e+01 
6.405550e+00 1.827295e+01 
6.440220e+00 1.808201e+01 
6.475480e+00 1.789066e+01 
6.510150e+00 1.770519e+01 
6.544810e+00 1.752229e+01 
6.580080e+00 1.733886e+01 
6.614750e+00 1.716114e+01 
6.649410e+00 1.698673e+01 
6.684080e+00 1.681487e+01 
6.719340e+00 1.664256e+01 
6.754010e+00 1.647542e+01 
6.788680e+00 1.631042e+01 
6.823940e+00 1.614494e+01 
6.859800e+00 1.597903e+01 
6.894470e+00 1.582077e+01 
6.929140e+00 1.566463e+01 
6.963800e+00 1.551067e+01 
6.999070e+00 1.535617e+01 
7.033730e+00 1.520711e+01 
7.068400e+00 1.505999e+01 
7.103660e+00 1.491239e+01 
7.138330e+00 1.476917e+01 
7.173600e+00 1.462534e+01 
7.208260e+00 1.448587e+01 
7.243530e+00 1.434583e+01 
7.277600e+00 1.421267e+01 
7.312860e+00 1.407698e+01 
7.348120e+00 1.394307e+01 
7.382790e+00 1.381311e+01 
7.417460e+00 1.368475e+01 
7.452720e+00 1.355585e+01 
7.487390e+00 1.343073e+01 
7.522650e+00 1.330510e+01 
7.557320e+00 1.318308e+01 
7.591990e+00 1.306257e+01 
7.627250e+00 1.294155e+01 
7.662510e+00 1.282206e+01 
7.697180e+00 1.270601e+01 
7.731850e+00 1.259137e+01 
7.766510e+00 1.247817e+01 
7.801180e+00 1.236633e+01 
7.836440e+00 1.225438e+01 
7.871110e+00 1.214588e+01 
7.906380e+00 1.203685e+01 
7.941040e+00 1.193101e+01 
7.976310e+00 1.182428e+01 
8.011570e+00 1.171847e+01 
8.046240e+00 1.161568e+01 
8.080900e+00 1.151414e+01 
8.115570e+00 1.141391e+01 
8.150830e+00 1.131368e+01 
8.185500e+00 1.121629e+01 
8.220770e+00 1.111838e+01 
8.255430e+00 1.102329e+01 
8.290100e+00 1.092975e+01 
8.324770e+00 1.083734e+01 
8.359430e+00 1.074601e+01 
8.394700e+00 1.065415e+01 
8.429960e+00 1.056311e+01 
8.464630e+00 1.047433e+01 
8.499890e+00 1.038507e+01 
8.534560e+00 1.029831e+01 
8.569200e+00 1.021260e+01 
