# Parameters:
# omega_b = 0.022270, omega_m = 0.141300, n_s = 0.968100, h = 67.900000, w = -1.000000, sigma_8 = 0.660000
# z = 0.000000
#
# k[1/Mpc] # P(k):
8.694000e-04 1.009503e+04 
2.077466e-03 2.163378e+04 
3.285532e-03 3.069567e+04 
4.493598e-03 3.768952e+04 
5.701664e-03 4.291696e+04 
6.909730e-03 4.665385e+04 
8.117797e-03 4.921728e+04 
9.325863e-03 5.077154e+04 
1.053393e-02 5.148418e+04 
1.174199e-02 5.151195e+04 
1.295006e-02 5.095347e+04 
1.415813e-02 4.994376e+04 
1.536619e-02 4.859568e+04 
1.657426e-02 4.699331e+04 
1.778233e-02 4.522887e+04 
1.899039e-02 4.339715e+04 
2.019846e-02 4.150951e+04 
2.140652e-02 3.961202e+04 
2.261459e-02 3.775212e+04 
2.382266e-02 3.597260e+04 
2.503072e-02 3.429864e+04 
2.623879e-02 3.274129e+04 
2.744685e-02 3.130407e+04 
2.865492e-02 2.999180e+04 
2.986299e-02 2.880061e+04 
3.100100e-02 2.778826e+04 
3.220400e-02 2.682471e+04 
3.288100e-02 2.632910e+04 
3.424300e-02 2.542299e+04 
3.555100e-02 2.465865e+04 
3.686000e-02 2.397633e+04 
3.795000e-02 2.346402e+04 
3.929100e-02 2.289457e+04 
4.039800e-02 2.246060e+04 
4.164000e-02 2.199724e+04 
4.294400e-02 2.152619e+04 
4.415000e-02 2.110356e+04 
4.542900e-02 2.064490e+04 
4.660900e-02 2.021587e+04 
4.782300e-02 1.975135e+04 
4.892900e-02 1.931461e+04 
5.031200e-02 1.874493e+04 
5.155900e-02 1.820813e+04 
5.238100e-02 1.784504e+04 
5.378200e-02 1.721471e+04 
5.513400e-02 1.659133e+04 
5.627600e-02 1.606323e+04 
5.735300e-02 1.556995e+04 
5.870100e-02 1.496072e+04 
5.988700e-02 1.444159e+04 
6.113500e-02 1.391673e+04 
6.225900e-02 1.346566e+04 
6.340100e-02 1.303087e+04 
6.480200e-02 1.253412e+04 
6.601100e-02 1.214057e+04 
6.725500e-02 1.176925e+04 
6.829100e-02 1.148946e+04 
6.958600e-02 1.116887e+04 
7.071100e-02 1.091811e+04 
7.192300e-02 1.067361e+04 
7.307400e-02 1.046427e+04 
7.412300e-02 1.029079e+04 
7.550400e-02 1.008602e+04 
7.663100e-02 9.933123e+03 
7.791200e-02 9.773682e+03 
7.912700e-02 9.633194e+03 
8.027600e-02 9.505128e+03 
8.138400e-02 9.384782e+03 
8.272200e-02 9.241711e+03 
8.406100e-02 9.098334e+03 
8.534100e-02 8.957819e+03 
8.653800e-02 8.821197e+03 
8.759800e-02 8.697964e+03 
8.900300e-02 8.530087e+03 
9.009000e-02 8.394775e+03 
9.113300e-02 8.261359e+03 
9.239600e-02 8.097900e+03 
9.358000e-02 7.940617e+03 
9.496100e-02 7.755111e+03 
9.608400e-02 7.604317e+03 
9.727500e-02 7.445304e+03 
9.852600e-02 7.277587e+03 
9.973800e-02 7.119085e+03 
1.009000e-01 6.970818e+03 
1.020900e-01 6.822411e+03 
1.034000e-01 6.665648e+03 
1.046000e-01 6.528275e+03 
1.057200e-01 6.407041e+03 
1.069100e-01 6.283609e+03 
1.082500e-01 6.154985e+03 
1.093900e-01 6.051895e+03 
1.105400e-01 5.952466e+03 
1.116900e-01 5.862051e+03 
1.129600e-01 5.766983e+03 
1.142000e-01 5.681900e+03 
1.153300e-01 5.608406e+03 
1.166400e-01 5.528616e+03 
1.177800e-01 5.462451e+03 
1.190000e-01 5.394065e+03 
1.201200e-01 5.334371e+03 
1.213400e-01 5.271167e+03 
1.227100e-01 5.201210e+03 
1.238900e-01 5.142124e+03 
1.250700e-01 5.083203e+03 
1.263200e-01 5.021315e+03 
1.275500e-01 4.959776e+03 
1.287500e-01 4.900126e+03 
1.299900e-01 4.838323e+03 
1.311300e-01 4.781256e+03 
1.323500e-01 4.719244e+03 
1.335900e-01 4.656683e+03 
1.347100e-01 4.600125e+03 
1.359800e-01 4.536583e+03 
1.372100e-01 4.474817e+03 
1.384300e-01 4.414399e+03 
1.395700e-01 4.357921e+03 
1.407700e-01 4.299607e+03 
1.420300e-01 4.238602e+03 
1.432800e-01 4.179424e+03 
1.444500e-01 4.125540e+03 
1.456300e-01 4.072306e+03 
1.468900e-01 4.016827e+03 
1.480500e-01 3.966858e+03 
1.491700e-01 3.920062e+03 
1.503800e-01 3.871154e+03 
1.516400e-01 3.821596e+03 
1.528200e-01 3.777554e+03 
1.540200e-01 3.733628e+03 
1.551900e-01 3.693054e+03 
1.564300e-01 3.651222e+03 
1.576600e-01 3.611037e+03 
1.588700e-01 3.572861e+03 
1.600900e-01 3.535158e+03 
1.612700e-01 3.500618e+03 
1.625400e-01 3.464131e+03 
1.637600e-01 3.429853e+03 
1.649500e-01 3.397087e+03 
1.662200e-01 3.362765e+03 
1.674000e-01 3.331521e+03 
1.685000e-01 3.302879e+03 
1.697500e-01 3.270680e+03 
1.710300e-01 3.238106e+03 
1.722200e-01 3.208355e+03 
1.734400e-01 3.177649e+03 
1.746400e-01 3.147930e+03 
1.758700e-01 3.117723e+03 
1.770900e-01 3.087737e+03 
1.782700e-01 3.059216e+03 
1.794600e-01 3.030458e+03 
1.807000e-01 3.000677e+03 
1.819100e-01 2.972101e+03 
1.830100e-01 2.946331e+03 
1.842200e-01 2.918392e+03 
1.855000e-01 2.889329e+03 
1.867000e-01 2.862559e+03 
1.879200e-01 2.835777e+03 
1.890900e-01 2.810474e+03 
1.902800e-01 2.785024e+03 
1.915200e-01 2.758922e+03 
1.926900e-01 2.734756e+03 
1.939000e-01 2.710407e+03 
1.951700e-01 2.685253e+03 
1.963100e-01 2.663117e+03 
1.975100e-01 2.640428e+03 
1.987800e-01 2.616784e+03 
2.000100e-01 2.594302e+03 
2.012500e-01 2.572130e+03 
2.023400e-01 2.552916e+03 
2.036100e-01 2.530896e+03 
2.048900e-01 2.509224e+03 
2.060400e-01 2.490035e+03 
2.072200e-01 2.470635e+03 
2.084200e-01 2.451379e+03 
2.096900e-01 2.431296e+03 
2.109200e-01 2.412128e+03 
2.121100e-01 2.393859e+03 
2.132700e-01 2.376292e+03 
2.145200e-01 2.357623e+03 
2.157200e-01 2.339953e+03 
2.168800e-01 2.323100e+03 
2.180700e-01 2.306040e+03 
2.193400e-01 2.288068e+03 
2.206000e-01 2.270458e+03 
2.217500e-01 2.254599e+03 
2.229500e-01 2.238266e+03 
2.241400e-01 2.222213e+03 
2.253500e-01 2.206103e+03 
2.264900e-01 2.191118e+03 
2.277100e-01 2.175368e+03 
2.289900e-01 2.159157e+03 
2.301500e-01 2.144657e+03 
2.313600e-01 2.129721e+03 
2.325600e-01 2.114957e+03 
2.337700e-01 2.100259e+03 
2.350000e-01 2.085508e+03 
2.362000e-01 2.071348e+03 
2.374100e-01 2.057306e+03 
2.386500e-01 2.043098e+03 
2.399100e-01 2.028844e+03 
2.410400e-01 2.016088e+03 
2.422500e-01 2.002575e+03 
2.435000e-01 1.988788e+03 
2.447300e-01 1.975435e+03 
2.458700e-01 1.963389e+03 
2.470600e-01 1.950959e+03 
2.483300e-01 1.937855e+03 
2.495600e-01 1.925284e+03 
2.507600e-01 1.913116e+03 
2.519600e-01 1.901090e+03 
2.532200e-01 1.888614e+03 
2.543700e-01 1.877401e+03 
2.555500e-01 1.866051e+03 
2.568000e-01 1.854168e+03 
2.580100e-01 1.842799e+03 
2.592400e-01 1.831451e+03 
2.604100e-01 1.820812e+03 
2.616100e-01 1.810020e+03 
2.628400e-01 1.799085e+03 
2.640600e-01 1.788442e+03 
2.652200e-01 1.778467e+03 
2.664300e-01 1.768174e+03 
2.676500e-01 1.757912e+03 
2.688400e-01 1.747982e+03 
2.700700e-01 1.737811e+03 
2.712400e-01 1.728241e+03 
2.724800e-01 1.718208e+03 
2.736700e-01 1.708741e+03 
2.748800e-01 1.699275e+03 
2.761000e-01 1.689834e+03 
2.773200e-01 1.680495e+03 
2.785400e-01 1.671231e+03 
2.797000e-01 1.662462e+03 
2.808900e-01 1.653559e+03 
2.821400e-01 1.644305e+03 
2.833900e-01 1.635152e+03 
2.845500e-01 1.626748e+03 
2.857800e-01 1.617929e+03 
2.870300e-01 1.609060e+03 
2.882100e-01 1.600775e+03 
2.893900e-01 1.592515e+03 
2.906300e-01 1.583892e+03 
2.918900e-01 1.575222e+03 
2.930500e-01 1.567321e+03 
2.942500e-01 1.559241e+03 
2.954200e-01 1.551485e+03 
2.966500e-01 1.543412e+03 
2.978900e-01 1.535356e+03 
2.990400e-01 1.527958e+03 
3.002700e-01 1.520063e+03 
3.015100e-01 1.512155e+03 
3.026800e-01 1.504766e+03 
3.038500e-01 1.497447e+03 
3.050300e-01 1.490136e+03 
3.062600e-01 1.482627e+03 
3.075000e-01 1.475132e+03 
3.087000e-01 1.467948e+03 
3.099100e-01 1.460774e+03 
3.111200e-01 1.453662e+03 
3.123100e-01 1.446724e+03 
3.135300e-01 1.439678e+03 
3.147300e-01 1.432812e+03 
3.159900e-01 1.425672e+03 
3.171800e-01 1.418977e+03 
3.183700e-01 1.412333e+03 
3.196300e-01 1.405364e+03 
3.208400e-01 1.398734e+03 
3.220300e-01 1.392274e+03 
3.232000e-01 1.386007e+03 
3.244300e-01 1.379488e+03 
3.256700e-01 1.372977e+03 
3.269200e-01 1.366475e+03 
3.280800e-01 1.360496e+03 
3.292500e-01 1.354560e+03 
3.304800e-01 1.348389e+03 
3.317100e-01 1.342274e+03 
3.328900e-01 1.336459e+03 
3.340700e-01 1.330695e+03 
3.353600e-01 1.324475e+03 
3.365300e-01 1.318893e+03 
3.377100e-01 1.313312e+03 
3.389200e-01 1.307638e+03 
3.401600e-01 1.301875e+03 
3.413700e-01 1.296323e+03 
3.425300e-01 1.291061e+03 
3.437700e-01 1.285484e+03 
3.449800e-01 1.280089e+03 
3.461800e-01 1.274784e+03 
3.473600e-01 1.269623e+03 
3.485800e-01 1.264361e+03 
3.498100e-01 1.259101e+03 
3.510200e-01 1.253970e+03 
3.522000e-01 1.249008e+03 
3.533900e-01 1.244046e+03 
3.546400e-01 1.238968e+03 
3.558400e-01 1.234140e+03 
3.570600e-01 1.229272e+03 
3.582700e-01 1.224484e+03 
3.595000e-01 1.219658e+03 
3.607100e-01 1.214940e+03 
3.618900e-01 1.210370e+03 
3.631200e-01 1.205645e+03 
3.643200e-01 1.201074e+03 
3.655500e-01 1.196426e+03 
3.667300e-01 1.192002e+03 
3.679500e-01 1.187501e+03 
3.691900e-01 1.182963e+03 
3.703600e-01 1.178715e+03 
3.715700e-01 1.174357e+03 
3.727700e-01 1.170069e+03 
3.739900e-01 1.165753e+03 
3.752000e-01 1.161522e+03 
3.763900e-01 1.157394e+03 
3.775800e-01 1.153298e+03 
3.788200e-01 1.149063e+03 
3.800300e-01 1.144964e+03 
3.812100e-01 1.141019e+03 
3.824200e-01 1.137021e+03 
3.836100e-01 1.133119e+03 
3.848600e-01 1.129053e+03 
3.860400e-01 1.125244e+03 
3.872400e-01 1.121399e+03 
3.884600e-01 1.117534e+03 
3.896500e-01 1.113797e+03 
3.908700e-01 1.109995e+03 
3.920600e-01 1.106315e+03 
3.933100e-01 1.102478e+03 
3.945300e-01 1.098763e+03 
3.957200e-01 1.095157e+03 
3.969300e-01 1.091515e+03 
3.981700e-01 1.087811e+03 
3.993500e-01 1.084313e+03 
4.094840e-01 1.055417e+03 
4.272360e-01 1.008726e+03 
4.454600e-01 9.650753e+02 
4.630560e-01 9.265266e+02 
4.804610e-01 8.911387e+02 
4.980690e-01 8.581918e+02 
5.159230e-01 8.270436e+02 
5.317440e-01 8.014803e+02 
5.489640e-01 7.753047e+02 
5.671990e-01 7.495476e+02 
5.838690e-01 7.275625e+02 
6.018840e-01 7.053877e+02 
6.202330e-01 6.841105e+02 
6.379250e-01 6.650286e+02 
6.545410e-01 6.480892e+02 
6.714560e-01 6.317790e+02 
6.892080e-01 6.155735e+02 
7.066010e-01 6.006221e+02 
7.240540e-01 5.862977e+02 
7.420450e-01 5.722042e+02 
7.593780e-01 5.593772e+02 
7.764720e-01 5.471512e+02 
7.942840e-01 5.349868e+02 
8.116170e-01 5.236717e+02 
8.288310e-01 5.128335e+02 
8.462240e-01 5.023245e+02 
8.631980e-01 4.923725e+02 
8.810700e-01 4.822609e+02 
8.989410e-01 4.725180e+02 
9.166330e-01 4.632358e+02 
9.345640e-01 4.540372e+02 
9.515980e-01 4.455873e+02 
9.688720e-01 4.372825e+02 
9.865640e-01 4.289921e+02 
1.031870e+00 4.088706e+02 
1.063490e+00 3.956643e+02 
1.097920e+00 3.818717e+02 
1.134370e+00 3.680714e+02 
1.167730e+00 3.561138e+02 
1.203830e+00 3.436772e+02 
1.240470e+00 3.317419e+02 
1.275790e+00 3.207313e+02 
1.309140e+00 3.107810e+02 
1.342970e+00 3.011289e+02 
1.378420e+00 2.914587e+02 
1.413200e+00 2.824007e+02 
1.448110e+00 2.736802e+02 
1.484090e+00 2.650849e+02 
1.518820e+00 2.571294e+02 
1.552880e+00 2.496782e+02 
1.588630e+00 2.421456e+02 
1.623230e+00 2.351476e+02 
1.657720e+00 2.284621e+02 
1.692450e+00 2.220026e+02 
1.726400e+00 2.159179e+02 
1.762200e+00 2.097859e+02 
1.797880e+00 2.038734e+02 
1.833270e+00 1.982700e+02 
1.869070e+00 1.928106e+02 
1.903200e+00 1.877902e+02 
1.937740e+00 1.828883e+02 
1.973190e+00 1.780473e+02 
2.007440e+00 1.735582e+02 
2.042160e+00 1.691613e+02 
2.077900e+00 1.647909e+02 
2.112390e+00 1.607169e+02 
2.146220e+00 1.568782e+02 
2.181600e+00 1.529684e+02 
2.216930e+00 1.492112e+02 
2.250760e+00 1.457521e+02 
2.286500e+00 1.422169e+02 
2.321770e+00 1.388285e+02 
2.355950e+00 1.356669e+02 
2.391280e+00 1.324974e+02 
2.426240e+00 1.294587e+02 
2.460670e+00 1.265665e+02 
2.495640e+00 1.237305e+02 
2.531080e+00 1.209193e+02 
2.566220e+00 1.182310e+02 
2.600830e+00 1.156752e+02 
2.635080e+00 1.132310e+02 
2.670340e+00 1.107634e+02 
2.705970e+00 1.083556e+02 
2.740040e+00 1.061265e+02 
2.774520e+00 1.039302e+02 
2.809730e+00 1.017608e+02 
2.844390e+00 9.969034e+01 
2.879960e+00 9.762211e+01 
2.914860e+00 9.564763e+01 
2.949410e+00 9.374730e+01 
2.984440e+00 9.186973e+01 
3.019760e+00 9.003550e+01 
3.054730e+00 8.827405e+01 
3.089030e+00 8.658765e+01 
3.124060e+00 8.491620e+01 
3.159560e+00 8.327328e+01 
3.194710e+00 8.168667e+01 
3.229010e+00 8.017919e+01 
3.263320e+00 7.870525e+01 
3.297930e+00 7.725992e+01 
3.332830e+00 7.584424e+01 
3.368040e+00 7.445091e+01 
3.403300e+00 7.309049e+01 
3.438450e+00 7.177285e+01 
3.473060e+00 7.050999e+01 
3.508440e+00 6.924715e+01 
3.543110e+00 6.804085e+01 
3.577470e+00 6.687114e+01 
3.613040e+00 6.569168e+01 
3.648120e+00 6.456001e+01 
3.682910e+00 6.346412e+01 
3.718050e+00 6.238165e+01 
3.753320e+00 6.132310e+01 
3.787980e+00 6.030976e+01 
3.822290e+00 5.932900e+01 
3.857020e+00 5.835738e+01 
3.891920e+00 5.740493e+01 
3.926650e+00 5.648088e+01 
3.961970e+00 5.556209e+01 
3.997360e+00 5.466064e+01 
4.031670e+00 5.380719e+01 
4.066330e+00 5.296655e+01 
4.101420e+00 5.213473e+01 
4.136200e+00 5.133100e+01 
4.170810e+00 5.054883e+01 
4.206250e+00 4.976324e+01 
4.241580e+00 4.899700e+01 
4.276300e+00 4.825869e+01 
4.310970e+00 4.753631e+01 
4.346120e+00 4.682054e+01 
4.380600e+00 4.613486e+01 
4.414730e+00 4.547024e+01 
4.450350e+00 4.479324e+01 
4.485320e+00 4.414252e+01 
4.519810e+00 4.351257e+01 
4.555430e+00 4.287476e+01 
4.590870e+00 4.225393e+01 
4.625480e+00 4.166119e+01 
4.659910e+00 4.108320e+01 
4.695230e+00 4.050399e+01 
4.729960e+00 3.994602e+01 
4.764450e+00 3.940207e+01 
4.799530e+00 3.885855e+01 
4.834910e+00 3.832109e+01 
4.869700e+00 3.780433e+01 
4.904370e+00 3.729938e+01 
4.939450e+00 3.679777e+01 
4.973940e+00 3.631295e+01 
5.008430e+00 3.583710e+01 
5.043810e+00 3.535921e+01 
5.078840e+00 3.489552e+01 
5.113500e+00 3.444513e+01 
5.148890e+00 3.399531e+01 
5.184210e+00 3.355468e+01 
5.219060e+00 3.312752e+01 
5.253660e+00 3.271023e+01 
5.288570e+00 3.229666e+01 
5.323420e+00 3.189184e+01 
5.358440e+00 3.149303e+01 
5.393590e+00 3.109975e+01 
5.428310e+00 3.071911e+01 
5.462800e+00 3.034801e+01 
5.497640e+00 2.997952e+01 
5.532670e+00 2.961462e+01 
5.567280e+00 2.925995e+01 
5.602000e+00 2.891010e+01 
5.637270e+00 2.856189e+01 
5.672410e+00 2.822107e+01 
5.707020e+00 2.789093e+01 
5.742040e+00 2.756354e+01 
5.777430e+00 2.723838e+01 
5.812210e+00 2.692404e+01 
5.846820e+00 2.661570e+01 
5.881610e+00 2.631057e+01 
5.916510e+00 2.600937e+01 
5.951600e+00 2.571098e+01 
5.986560e+00 2.541825e+01 
6.021830e+00 2.512760e+01 
6.056490e+00 2.484715e+01 
6.091160e+00 2.457153e+01 
6.125830e+00 2.430015e+01 
6.161090e+00 2.402877e+01 
6.195760e+00 2.376682e+01 
6.230420e+00 2.350890e+01 
6.265690e+00 2.325040e+01 
6.300950e+00 2.299555e+01 
6.335620e+00 2.274873e+01 
6.370880e+00 2.250146e+01 
6.405550e+00 2.226268e+01 
6.440220e+00 2.202770e+01 
6.475480e+00 2.179223e+01 
6.510150e+00 2.156401e+01 
6.544810e+00 2.133895e+01 
6.580080e+00 2.111325e+01 
6.614750e+00 2.089460e+01 
6.649410e+00 2.067999e+01 
6.684080e+00 2.046853e+01 
6.719340e+00 2.025653e+01 
6.754010e+00 2.005092e+01 
6.788680e+00 1.984793e+01 
6.823940e+00 1.964438e+01 
6.859800e+00 1.944030e+01 
6.894470e+00 1.924562e+01 
6.929140e+00 1.905356e+01 
6.963800e+00 1.886417e+01 
6.999070e+00 1.867416e+01 
7.033730e+00 1.849080e+01 
7.068400e+00 1.830986e+01 
7.103660e+00 1.812832e+01 
7.138330e+00 1.795217e+01 
7.173600e+00 1.777527e+01 
7.208260e+00 1.760375e+01 
7.243530e+00 1.743153e+01 
7.277600e+00 1.726777e+01 
7.312860e+00 1.710090e+01 
7.348120e+00 1.693622e+01 
7.382790e+00 1.677642e+01 
7.417460e+00 1.661857e+01 
7.452720e+00 1.646006e+01 
7.487390e+00 1.630620e+01 
7.522650e+00 1.615174e+01 
7.557320e+00 1.600171e+01 
7.591990e+00 1.585353e+01 
7.627250e+00 1.570475e+01 
7.662510e+00 1.555786e+01 
7.697180e+00 1.541517e+01 
7.731850e+00 1.527423e+01 
7.766510e+00 1.513507e+01 
7.801180e+00 1.499759e+01 
7.836440e+00 1.485996e+01 
7.871110e+00 1.472658e+01 
7.906380e+00 1.459256e+01 
7.941040e+00 1.446246e+01 
7.976310e+00 1.433127e+01 
8.011570e+00 1.420123e+01 
8.046240e+00 1.407491e+01 
8.080900e+00 1.395014e+01 
8.115570e+00 1.382697e+01 
8.150830e+00 1.370378e+01 
8.185500e+00 1.358408e+01 
8.220770e+00 1.346377e+01 
8.255430e+00 1.334693e+01 
8.290100e+00 1.323197e+01 
8.324770e+00 1.311841e+01 
8.359430e+00 1.300620e+01 
8.394700e+00 1.289334e+01 
8.429960e+00 1.278148e+01 
8.464630e+00 1.267242e+01 
8.499890e+00 1.256277e+01 
8.534560e+00 1.245621e+01 
8.569200e+00 1.235094e+01 
